<Actel_Data_File>
    <format name="NVM File" version="01.00.00"/>
    <header>
        <die>
            M2S025
        </die>
        <family>
            SmartFusion2
        </family>
        <module>
            
        </module>
        <package>
            256 VF
        </package>
        <version>
            11.7.2.2
        </version>
    </header>
    <nvm>
        <region name="PGM_store" address="0x000000" retrieveAddressFromFile="false" size="18704" format="HEX" type="Data Storage" wordSize="8" numberWords="18704" memFile="C:/Users/Hiperwall/Desktop/NewProject/Servo-arm2/SoftConsole/servoarm/Release/servoarm.hex" memType="INTELHEX" memFileTimeStamp="1489196380" clientType="public" program="true">
            00000120910100007f030000810300008303000085030000870300000000
            0000000000000000000000000000890300008b030000000000008d030000
            8f03000091030000930300006d0c0000890c0000990300009b0300009d03
            00009f030000a1030000a3030000a5030000a7030000a9030000ab030000
            11150000af030000b1030000b3030000b503000041060000b9030000bb03
            0000bd030000bf030000c1030000c3030000c5030000450d0000e50d0000
            cb030000cd030000cf030000d1030000d3030000d5030000e92e0000d903
            0000db030000dd030000df030000e1030000e3030000e5030000e7030000
            e9030000eb030000ed030000ef030000f1030000f3030000f5030000f703
            0000f9030000fb030000fd030000ff030000010400000304000005040000
            07040000090400000b0400000d0400000f04000011040000130400001504
            000017040000190400001b0400001d0400001f0400002104000023040000
            2504000027040000290400002b0400002d0400002f040000310400003304
            000000000000000000004ff0000bdff8be020068dff8b612096801f00301
            00f01c00142801d14bf0020b002901d04bf0010bbbf1000f05d0a748a749
            dff8722200f09ff8a64880470bf0020abaf1000f0cd0dff86e02dff86e12
            02680b680fb44ff000024ff0ff0302600b609d489d4a9e4b022808d1dff8
            3e120a60dff842120a60dff836120b60012808d1dff82e120a60dff82a12
            0a60dff81e120b609348002809d193489349944a00f032f893489449944a
            00f02df894489449954a00f028f894489549dff8e62100f05af8bbf1000f
            12d092489249dff8da2100f051f80bf0020abaf1000f07d00fbc02600b60
            00bfaff30080aff30080dff828020ff2030e00474ff000004ff00001dff8
            1cf2fee72de9f841884225d0b2eb010200d5fee740ea010313f0030302d0
            00f01df819e04ff0000390461211f7d09a421cbff0c8f0c103f10103f8d1
            08f00f08b8f1000f08d004780c7000f1010001f10101b8f10108f6d1bde8
            f88108b54ff0000303780b7000f1010001f10101013af7d108bd884237d0
            00f00306002e14d04ff00405a5eb06044ff0080707fb06f8914669fa08f9
            002c07d080f8009069fa07f900f10100013cf5e74ff000060f46091a8846
            0911914614461546b14206d018bfa0e8340206f10106b142f8d108f00f08
            b8f1000f07d002704fea322200f10100b8f10108f4e77047fee7fee7fee7
            fee7fee7fee7fee7fee7fee7fee7fee7fee7fee7fee7fee7fee7fee7fee7
            fee7fee7fee7fee7fee7fee7fee7fee7fee7fee7fee7fee7fee7fee7fee7
            fee7fee7fee7fee7fee7fee7fee7fee7fee7fee7fee7fee7fee7fee7fee7
            fee7fee7fee7fee7fee7fee7fee7fee7fee7fee7fee7fee7fee7fee7fee7
            fee7fee7fee7fee7fee7fee7fee7fee7fee7fee7fee7fee7fee7fee7fee7
            fee7fee7fee7fee7fee7fee7fee7fee7fee7fee7fee7fee7fee770470000
            0000a2a2a2a2008003400880034010800340308003403480034038800340
            18080240000000f0002000000120d9130000000000000000000001000000
            00000000000000000000000090010000c0040000c0040000c0440000c044
            0000000000205004002050040020e0050020e005002000f00020ad420000
            f933000000000000000000000000000010b5054c237833b9044b13b10448
            aff300800123237010bd500400200000000098440000084b10b51bb10848
            0849aff300800848036803b910bd074b002bfbd0bde81040184700bf0000
            00009844000054040020000000200000000001607047006870470eb503fa
            01f303ea020301686fea020201ea020141ea030101600ebd006800ea0200
            20fa01f0704701807047008870470eb503fa01f303ea020301886fea0202
            01ea020141ea030101800ebd008800ea020020fa01f07047017070470078
            70470eb503fa01f303ea020301786fea020201ea020141ea030101700ebd
            007800ea020020fa01f0704730b4124c82b0236823f004032360636803f0
            01030193019babb181b1451e002201e08a420bd015f8013f013223616368
            03f001030193019b002bf2d11146084602b030bc70471946f9e700bf0060
            01400b4b10b50b4c1988236889b233b10a4a10689847094a002313702360
            084b1a46196841f0010119601368db07fcd410bd8c040020880400209404
            00207804002000600140944af8b553689468dbb21c40a0071dd4e10700d4
            f8bd904e3378022b60d0052b2fd0012b4ed08b4a8c4c936823f001039360
            23683bb18a4a002110689847894a00231370236000233370f8bd1069824e
            20f4ff43327823f07f039db2c0b2052a00f2bb80dfe812f090009c009c00
            a40063004f007c4b1a68002a40f08e80e307c8d57a4c236883b9794b1b68
            002b00f0d180784898472060236833b96d4a0321936823f0010393603170
            23686f4c002b40f0b480674a0321936823f0010393603170f8bd6c4c2388
            9bb2002b40f09280644b1b78002b9dd0bde8f840fff76ebf624c2368002b
            f3d0624d21682868fff73dff23689842ddd223682a681b1a104423602860
            f8bd002db4d1554b534f1a683b6850702bb1104602219847514b3d601d70
            00233370e2077ff574af7be7002d2fd1524a4a4913880d689bb22b4413f8
            013cf12b00f0a5804d49138809889bb28b4206d217881388bfb201339bb2
            e85513801388454a9bb299427ff451af3b4f13883a6899b2002ad3d02846
            9047394a002313703b60cce7002dccd0f12800f09080354b1a68002ac5d0
            1b68984737e7002d3ff435af304b1a68002af5d12fe7002db8d0334b1b78
            9842ead12f4a002313801188264d13882f68013389b29bb2042513807854
            3570a5e7204d2b68002b9fd01f4a0021106898471e4a002313702b6096e7
            244f21883d6889b22846fff7b5fe23889bb298421cd30022174b22801b68
            002b3ad002233370f8bd154d21682868fff7a3fe2a6823680244181a2a60
            2060f8bd0b4b1b78002b3ff436affff7bdfe32e7238805441b1a9bb23d60
            2380f8bd00bf00600140980400208804002094040020780400207c040020
            900400207004002084040020800400208c0400206c040020990400207404
            002003233370f8bd1188104f13888ab29bb23968a8541d4415f8010c0029
            3ff43baf3b68984737e70a4b00271f8019881a88084d013292b21a801b88
            2d688ab29bb20421a8543170ef5427e700bf7c0400208c04002094040020
            2c4a036890422de9f04f1c68d3f81880d3f804c0d3f828e01f6b5e6bdd69
            2cd0254a26491346d1f84890dff898a04ff0030b026080f804b049f48069
            0820c1f84890caf88001886c20f480608864116821f00041116024f00102
            1a60c3f81880c3f804c01a6842f001021a60c3f828e01f635e63dd61bde8
            f08f104a1049936cdff8409043f400734ff0020b4ff0040a016080f804b0
            9364c9f880a1d2f84890036829f4007090640a6822f000420a60d1e700bf
            4005002000100140008003400010004000e100e0026830b49368dd053dd4
            0369c568ab4210d28168194401e0ab420bd211f8014b0133546194680361
            e405f5d5ab4201d230bc70479368dd0510d4c36985699d4224d941691944
            01e0ab4207d211f8014b013354619468c361e405f5d5436a002be6d0c169
            83699942e2d3906810f48070ded1202301e0013bdad050619168c905f9d5
            30bc7047c5680369cfe7436a002bebd1cde710b590f8803082b0022b0cd0
            012b18d003689a68520604d41a6900929a685206fad502b010bd04462368
            03e01969626f00911ab99a685106f8d5f2e700989047f2e7026893685c06
            ebd4036bc16a14698b42019404d2826a0199d154036b0268916801334906
            0363f0d502b010bd00bf70b5036882b01a6a044692071d460ed590f88020
            022a36d0012a9a6803d190e01a6901929a685206fad50222da602a6ad607
            09d594f88020022a28d02046fff75dff23680122da602a6ad00648d42a6a
            51075cd42a6a12070bd5da6a94f8801042f008020229da625cd001297fd0
            0822da602b6a9b060dd402b070bd1969626f0191002a59d19a685606f7d5
            cde7a26f5a61d7e72046fff77bff236a256b002b63d02368002210216262
            6261a261e261d9609a6a0a439a62da6a002642f00c0226612046da62fff7
            19ffe36f266313b12946a06a984723682022da6002b070bd2046fff755ff
            236a2bb1a06a216b98472046fff703ff236810219a6a012022f010026062
            9a62d9602a6a5107a2d5da6a204642f00402da62fff78cfe23680422da60
            97e71a68a16f22f47f0222f47f4242f480721a60596199e7019890472368
            a1e750063ff571af226be16a18699142019004d9a36a01999954226b2368
            9968013249062263f0d55fe72368a4e7002323612046fff7c2fe236878e7
            684620f007018d4601b50348fff73affbde8014085467047400500206846
            20f007018d4601b50348fff72cffbde8014085467047bc0400202de9f041
            224cdff894e02468214d4fea840c0ceb04064fea8608f70108f1402606f5
            8036be44cef8043045447060b1606e68b2f5803f4fea16464fea06466e60
            1bd86b6892b214491a4300236a600b616444104aa3001a445168e40104f1
            844303f5201341f4e001012500245160c3f8c051c3f8cc41bde8f081074b
            a2f5803201f5803100f580301a61d9609860dfe7b8040020084001409c04
            0020c0012842684620f007018d4679b52048204a0368204c03eb83018900
            03f52875012644f825600a4451683344042b08bf002321f4e00151600360
            184b1a697ab11748016804290cbf0021013101609868d9681b7dfff786ff
            bde879408546704702680c4902eb8202920011444a68084c12f4e002f0d1
            0a4d5968012022602a6018700029e8d08847bde8794085467047b4040020
            08400140000028429c040020b8040020684620f007018d46244b31b51b68
            13f4706f19d0224c23689900ca18d20102f1844202f52012d2f808223ab1
            1d4a02205568107015b1a847236899000b441a4adb011a4453680bbb144b
            1b6813f4704f05d0144b04205a68187002b19047bde83140124a12490123
            c2f8c8318546c2f8803ac2f84834c1f8803ac2f8c836c1f8843ac2f84839
            c1f8883a7047054b03205a681870002ad7d09047d5e700400140b4040020
            9c040020080228420000284204002842f0b5044683b030b1072b1e4603d8
            b2f5005f154601d303b0f0bd0f4601f10800d1b2fff75ffb05f47f4146ea
            511107f10c00fff757fb276007f11000fff754fb82070cd520680430fff7
            4efb23688df8070003f11000fff747fb8307f2d40023237103b0f0bd00bf
            98b191b18ab170b504460d468e1820681030fff735fbc307f9d515f8011b
            2068fff72cfbb542f2d170bd7047f8b508b101b112b900252846f8bd0446
            0068174610300e46fff71cfb2379820743ea00032371efd5013e002501e0
            bd42ebd0206801350430fff70cfb06f8010f20681030fff706fb23790343
            23718307edd42846f8bd00bf034628b100790022c0f382001a717047ff20
            704738b5104b082905465c5c00680cd90c30fff7eafa2b6840ea0401c9b2
            03f10c00bde83840fff7deba0830fff7ddfa2b6840ea0401c9b203f10800
            bde83840fff7d1ba00bf3044000038b5104b082905465c5c00680cd90c30
            fff7c6fa2b6820ea0401c9b203f10c00bde83840fff7baba0830fff7b9fa
            2b6820ea0401c9b203f10800bde83840fff7adba00bf3044000070b50446
            16461d46016001f108000021fff7a0fa206800210c30fff79bfa31462068
            fff767fa206829460430fff762fa206800211030fff75dfa206800211830
            fff758fa206800212030fff753fa206800212830fff74efa206800213030
            fff749fa206800213830fff744fa206800214030fff73ffa206800214830
            fff73afa206800215030fff735fa206800215830fff730fa206800216030
            fff72bfa206800216830fff726fa206800217030fff721fa206800217830
            fff71cfa206800218030fff717fa206800218830bde87040fff710ba70b5
            4c1e0f2c04d822b9bde87040fff769bf70bd06460c4615460b4a036852f8
            210000211844fff7fbf9084a336852f8240029461844fff7f3f930462146
            bde87040fff72bbf00bf44440000ec43000070b506460c46027101f18005
            3160204600210434fff70cfaac42f8d13379012b21d00ad3022b07d13068
            4ff0ff318030bde87040fff7ccb970bd3068ff218030fff7f6f93068ff21
            8430fff7f1f93068ff218830fff7ecf93068ff218c30bde87040fff7e5b9
            30684ff6ff718030fff7c7f930684ff6ff71bde870408430fff7bfb900bf
            1f290b4600d970470068114600eb8300fff79cb938b503790446012b0d46
            21d008d3022b05d1bde838400068a030fff78db938bd0068c9b2a030fff7
            b7f92068c5f30721a430fff7b1f92068c5f30741a830fff7abf92068290e
            ac30bde83840fff7a4b9006889b2a030fff787f92068290ca430bde83840
            fff780b9037970b5012b044624d009d3022b05d1bde8704000689030fff7
            5cb9002070bd00689030fff786f9054620689430fff781f9064620689830
            fff77cf92368000440ea062403f19c00fff774f92c4344ea006070bd0068
            9030fff754f9054620689430fff74ff945ea004070bd037970b5012b0446
            24d009d3022b05d1bde870400068a030fff726b9002070bd0068a030fff7
            38f905462068a430fff733f906462068a830fff72ef92368000440ea0624
            03f1ac00fff726f92c4344ea006070bd0068a030fff71ef905462068a430
            fff719f945ea004070bd1f29006800d9704710b500eb81042046fff724f9
            40f00801c9b22046bde81040fff71ab91f29006800d9704710b500eb8104
            2046fff712f920f008012046bde81040fff709b900bf38b503790124012b
            054604fa01f420d009d3022b06d100682146bde838408030fff7c6b838bd
            006821468030fff7f0f82868210a8430fff7ebf82868210c8830fff7e6f8
            2868210e8c30bde83840fff7dfb8006821468030fff7c2f82868210c8430
            bde83840fff7bbb800bf4ff602020c4bd3f84c11914206d00b4a536943f4
            00735361fff720b8d3f8982042f48072c3f89820d3f8982022f08062c3f8
            9820ebe700bf0080034000ed00e0f0b52e4b83b0d3f89820510117d4d3f8
            9820d2042ed56a4629490868496803c2d3f89c2002a9c2f382120a4412f8
            082c012a36d003d3dff8bce0224b09e0d3f85011214a11f0040f204b18bf
            1346dff8a4e01f4f1f4e204d204c2148214a2249cef800303b6033602b60
            23600360116003b0f0bd1d4bdff87cc0dff854e0154f164e174d1748184c
            134a1949ccf80030cef800303b6033602b600460116003b0f0bddff850e0
            0a4f0a4e0b4d0b4c0c480c4a0d494ff40043d2e700bf0080034088440000
            40420f0080f0fa0240787d0114000020180000200c000020100000200400
            002008000020c00e1602003b5808801d2c041c00002010b50d4c2046fff7
            cffe02460b4b20461a601a6882f007021a601968fff75afe074808490222
            fff7e3fc4ff0402301221a61bff34f8f10bdc405002020000020cc050020
            24000020012910b50c460ad0022908d0032920d0042904d005292ed00629
            3ad010bd02f039fa0022002302f0d7f821a3d3e9002302f084fa264b0022
            02f0cef802f090fc02f062fe2146bde8104002462148fff7a9bd02f01ffa
            00221f4b02f0bdf80022002302f0b9f814a3d3e9002302f066fa00221a4b
            e0e702f00dfa0022002302f0abf80fa3d3e9002302f058fa0022144bd2e7
            02f0fff90022002302f09df80aa3d3e9002302f04afa00220e4bc4e700bf
            181818181818c83f1b1b1b1b1b1bcb3f5a5a5a5a5a5aca3fd9d8d8d8d8d8
            c83f00002840d40500200080444000002040000022400000264008b50b48
            0621fff787ff0a480421fff783ff09480521fff77fff08480221fff77bff
            bde8084006480321fff775bf00bf000048420000024300008c420000b842
            0000f04100b583b0a0b101281cd002281fd0032813d000230193019b0f4a
            934205dc019b01330193019b9342f9dd03b05df804fb0a480621fff74eff
            ebe709480621fff749ffe6e707480621fff744ffe1e706480621fff73fff
            dce787f504000000f0420000dc4200000243000048422de9f043012a83b0
            9046054689461e462ad02abb0846294602f096fd00b341f664174c460a9b
            07fb03f720460b99fff71bffcdf80480019b9f4205dd019b01330193019b
            9f42f9dc3146204602f010fc81462846494602f06dfd08b14c46e4e72046
            03b0bde8f0830846294602f062fd0028f5d041f664174c460a9b4ff00008
            07fb03f720460b99fff7eefecdf80080009b9f4205dd009b01330093009b
            bb42f9db3146204602f0e5fb81462846494602f04afd0028d3d04c46e3e7
            10b505228ab002238de80c00544800224ff07e535349fff795ff00230293
            029b514a934205dc029b01330293029b9342f9dd0220fff750ff0a220323
            8de80c004a4801224ff07e534949fff77bff00230393039b444a934205dc
            039b01330393039b9342f9dd00230493049b414a934205dc049b01330493
            049b9342f9dd0320fff72aff00230593059b3b4a934205dc059b01330593
            059b9342f9dd0a2203238de80c00354800224ff07e532f49fff749ff0023
            0693069b2b4a934205dc069b01330693069b9342f9dd0a2203238de80c00
            264801224ff07e532849fff732ff00230793079b264a934205dc079b0133
            0793079b9342f9dd0220fff7edfe00230893089b1e4a934205dc089b0133
            0893089b9342f9dd0a2403230193134900224ff07e5300941248fff70cff
            0223019301224ff07e5300940a480949fff702ff00230993099b0e4a9342
            05dc099b01330993099b9342f9ddfff79cfe0ab010bd0000b6420000b842
            9f2e63000000a0420000f0413fd2df03ff741903000082424f97310000b5
            0a2289b002238de80c00404801224ff07e533f49fff7d3fe00230293029b
            3d4a934205dc029b01330293029b9342f9dd0a2203238de80c0038480122
            4ff07e533749fff7bcfe00230393039b324a934205dc039b01330393039b
            9342f9dd0a2204238de80c002e4800224ff07e532d49fff7a5fe00230493
            049b264a934205dc049b01330493049b9342f9dd0320fff760fe00230593
            059b244a934205dc059b01330593059b9342f9dd0a2204238de80c001e48
            00224ff07e531949fff77ffe00230693069b1a4a934205dc069b01330693
            069b9342f9dd0a2203238de80c00154800224ff07e530c49fff768fe0023
            0793079b084a934205dc079b01330793079b9342f9dd09b05df804fb00bf
            0000e0420000b8424f9731000000c8420000f0410000c442000002436f6d
            45000000c0422fc11d000000704200b5052287b002238de80c002d480022
            4ff07c532c49fff735fe00230293029b2a4a934205dc029b01330293029b
            9342f9dd012205238de80c00224800224ff07e532349fff71efe00230393
            039b214a934205dc039b01330393039b9342f9dd0a2204238de80c001b48
            00224ff07e531a49fff707fe00230493049b184a934205dc049b01330493
            049b9342f9dd0a2203238de80c00134801224ff07e531249fff7f0fd0023
            0593059b084a934205dc059b01330593059b9342f9dd07b05df804fb00bf
            000082420000e0424f97310000008c421fd613000000a0420000c0422fc1
            1d000000a8420000704200b50a2287b003238de80c00274801224ff07e53
            2649fff7bffd00230393039b244a934205dc039b01330393039b9342f9dd
            052202238de80c001f4901224ff07c531e48fff7a8fd0a2203238de80c00
            1b4800224ff07e531449fff79dfd00230493049b134a934205dc049b0133
            0493049b9342f9dd13480a2205238de80c00014600224ff07e53fff786fd
            00230593059b084a934205dc059b01330593059b9342f9dd07b05df804fb
            00bf0000b4420000a8424f97310000008242000084420000484200007042
            10b51c4884b00a2406230146019301224ff07e530094fff75bfd04230193
            164901224ff07e5300941448fff751fd02230193134901224ff07e530094
            1148fff747fd0323019300224ff07e5300940e480e49fff73dfd00230393
            039b0c4a934205dc039b01330393039b9342f9dd04b010bd00bf0000dc42
            0000a04200000243000082420000b8420000f041000048424f97310010b5
            0a2288b002238de80c00444800224ff07e534349fff711fd00230293029b
            414a934205dc029b01330293029b9342f9dd0a2203238de80c003c480122
            4ff07e533b49fff7fafc00230393039b364a934205dc039b01330393039b
            9342f9dd0a2204238de80c00324800224ff07e533149fff7e3fc00230493
            049b2a4a934205dc049b01330493049b9342f9dd0a2203238de80c002948
            01224ff07e532349fff7ccfc00230593059b254a934205dc059b01330593
            059b9342f9dd0320fff787fc00230693069b1d4a934205dc069b01330693
            069b9342f9dd0a2404230193144900224ff07e5300940e48fff7a6fc0323
            019300224ff07e53009411480f49fff79cfc00230793079b074a934205dc
            079b01330793079b9342f9dd08b010bd000082420000b8429f2e63000000
            aa420000f0410000c042000002430000c8426f6d450000008c4200b50023
            89b00393039b394a934205dc039b01330393039b9342f9dd052202238de8
            0c00334801224ff07e533249fff761fc00230493049b2d4a934205dc049b
            01330493049b9342f9dd0a2205238de80c002a4800224ff07e532949fff7
            4afc00230593059b274a934205dc059b01330593059b9342f9dd0a220423
            8de80c00214800224ff07e532049fff733fc00230693069b164a934205dc
            069b01330693069b9342f9dd0a2203238de80c00184801224ff07e531249
            fff71cfc00230793079b0b4a934205dc079b01330793079b9342f9dd0a22
            05238de80c00074901224ff07e530648fff705fc09b05df804fb9f2e6300
            0000e042000082420000784200008c424f9731000000a0420000f4420000
            9e4200b50a2285b003238de80c001b4901224ff07e531a48fff7e3fb0522
            02238de80c00184800224ff07e531749fff7d8fb00230293029b154a9342
            05dc029b01330293029b9342f9dd0a2203238de80c000f4800224ff07e53
            0949fff7c1fb00230393039b0b4a934205dc039b01330393039b9342f9dd
            05b05df804fb00009c420000b4420000da420000e0421fd6130000004842
            4f97310010b5214884b00a2406230146019301224ff07e530094fff797fb
            042301931b4901224ff07e5300941948fff78dfb05230193184901224ff0
            7e5300941648fff783fb02230193154901224ff07e5300941348fff779fb
            0323019300224ff07e53009410481049fff76ffb00230393039b0e4a9342
            05dc039b01330393039b9342f9dd04b010bd00bf0000dc420000a0420000
            02430000784200008c420000de420000b8420000f041000048424f973100
            00b50a2289b002238de80c00454800224ff07c534449fff73ffb00230293
            029b424a934205dc029b01330293029b9342f9dd0a2203238de80c003d48
            01224ff07e533c49fff728fb00230393039b3a4a934205dc039b01330393
            039b9342f9dd0a2204238de80c00314800224ff07e533249fff711fb0023
            0493049b304a934205dc049b01330493049b9342f9dd0320fff7ccfa0023
            0593059b2a4a934205dc059b01330593059b9342f9dd0f2203238de80c00
            1e4900224ff07e532248fff7ebfa0a2204238de80c00204800224ff07e53
            1749fff7e0fa00230693069b134a934205dc069b01330693069b9342f9dd
            0f2203238de80c00154800224ff07e531149fff7c9fa00230793079b074a
            934205dc079b01330793079b9342f9dd09b05df804fb0000ac420000b842
            4f9731000000c8420000f0415f823b00000002431fd613006f6d45000000
            a0420000c64200008c4200b50a2287b002238de80c00214800224ff07e53
            2049fff795fa00230393039b1e4a934205dc039b01330393039b9342f9dd
            0a2204238de80c00194800224ff07e531849fff77efa00230493049b164a
            934205dc049b01330493049b9342f9dd0f2203238de80c00104801224ff0
            7e530f49fff767fa00230593059b0d4a934205dc059b01330593059b9342
            f9dd07b05df804fb000040420000ac425f823b0000009e420000c6424f97
            31000000a44200008c427f584f0010b50a2286b003238de80c0030480122
            4ff07e532f49fff739fa00230393039b2d4a934205dc039b01330393039b
            9342f9dd0a2202238de80c00284801224ff07e532749fff722fa00230493
            049b224a934205dc049b01330493049b9342f9dd0a24032301931a490022
            4ff07e5300941c48fff70bfa042301931b4901224ff07e5300941948fff7
            01fa194805230146019301224ff07e530094fff7f7f90223019301224ff0
            7e53009412481249fff7edf900230593059b104a934205dc059b01330593
            059b9342f9dd06b010bd00bf0000b4420000a4421fd61300000048420000
            40420000f04100009e420000024300008c420000b842000038424f973100
            00b50a2289b002238de80c00404800224ff07e533f49fff7b9f900230293
            029b3d4a934205dc029b01330293029b9342f9dd0a2204238de80c003848
            00224ff07e533749fff7a2f900230393039b354a934205dc039b01330393
            039b9342f9dd0a2203238de80c002f4801224ff07e532e49fff78bf90023
            0493049b2c4a934205dc049b01330493049b9342f9dd0320fff746f90023
            0593059b264a934205dc059b01330593059b9342f9dd0a2204238de80c00
            204800224ff07e531749fff765f900230693069b134a934205dc069b0133
            0693069b9342f9dd0a2203238de80c00164800224ff07e530f49fff74ef9
            00230793079b084a934205dc079b01330793079b9342f9dd09b05df804fb
            00bf000050420000b8424f9731000000a442000002430feb09000000b042
            0000f0415f823b006f6d45000000a0420000824200b50a2287b002238de8
            0c00274801224ff07e532649fff719f900230293029b244a934205dc029b
            01330293029b9342f9dd0a2204238de80c001f4800224ff07e531e49fff7
            02f900230393039b1c4a934205dc039b01330393039b9342f9dd00230493
            049b174a934205dc049b01330493049b9342f9dd0a2203238de80c001148
            01224ff07e531049fff7dff800230593059b074a934205dc059b01330593
            059b9342f9dd07b05df804fb0000be42000050424f97310000008e420000
            a0426f6d45001fd6130000009c420000824200b50a2285b003238de80c00
            164801224ff07e531549fff7b1f800230293029b134a934205dc029b0133
            0293029b9342f9dd052202238de80c000e4801224ff07c530d49fff79af8
            00230393039b0b4a934205dc039b01330393039b9342f9dd05b05df804fb
            00bf0000ae4200009c424f9731000000b6420000be421fd6130010b50523
            86b00a240193274900224ff07e5300942548fff771f80423019301224ff0
            7e53009422482249fff767f800230393039b204a934205dc039b01330393
            039b9342f9dd0a2203238de80c001b4800224ff07e531a49fff750f80023
            0493049b154a934205dc049b01330493049b9342f9dd0a2202238de80c00
            114801224ff07e531049fff739f800230593059b094a934205dc059b0133
            0593059b9342f9dd06b010bd00bf00008242000040420000024300008e42
            4f9731000000f0410000ae420000b8420000b64200b50a2287b004238de8
            0c00304901224ff07e532f48fff70bf805230093019301224ff07e532c48
            2c49fff701f800230293029b2a4a934205dc029b01330293029b9342f9dd
            05230093019300224ff07e5324482049fef7ebff00230393039b214a9342
            05dc039b01330393039b9342f9dd05230093019301224ff07e5316481849
            fef7d5ff00230493049b164a934205dc049b01330493049b9342f9dd0523
            0093019300224ff07e530c480a49fef7bfff00230593059b094a934205dc
            059b01330593059b9342f9dd07b05df804fb0000c8420000024300003443
            000070425f823b000000a0404f97310030b50a2289b005238de80c004948
            01224ff07e534849fef795ff00230293029b464a934205dc029b01330293
            029b9342f9dd0a2204238de80c00414800224ff07e534049fef77eff0023
            0393039b3b4a934205dc039b01330393039b9342f9dd0a2203238de80c00
            354801224ff07e533149fef767ff00230493049b324a934205dc049b0133
            0493049b9342f9dd0220fef722ff00230593059b284a934205dc059b0133
            0593059b9342f9dd0a240325234901224ff07e538de830002348fef741ff
            052301931b4901224ff07e5300941f48fef737ff00224ff07e538de83000
            1c481a49fef72eff00230693069b134a934205dc069b01330693069b9342
            f9dd0f480a2204238de80c00014601224ff07e53fef717ff00230793079b
            074a934205dc079b01330793079b9342f9dd09b030bd00bf00008c420000
            70424f9731000000a64200000243efc594000000b4420000904200004842
            00b50a228bb004238de80c005c4901224ff07e535b48fef7e9fe05230093
            019301224ff07e5358485849fef7dffe00230293029b564a934205dc029b
            01330293029b9342f9dd05230093019300224ff07e534e484c49fef7c9fe
            00230393039b4c4a934205dc039b01330393039b9342f9dd052300930193
            01224ff07e5346484249fef7b3fe00230493049b414a934205dc049b0133
            0493049b9342f9dd05230093019300224ff07e5338483a49fef79dfe0023
            0593059b354a934205dc059b01330593059b9342f9dd0523009301930122
            4ff07e532c482c49fef787fe00230693069b2a4a934205dc069b01330693
            069b9342f9dd05230093019300224ff07e5322482049fef771fe00230793
            079b204a934205dc079b01330793079b9342f9dd05230093019301224ff0
            7e531a481649fef75bfe00230893089b154a934205dc089b01330893089b
            9342f9dd05230093019300224ff07e530c480e49fef745fe00230993099b
            094a934205dc099b01330993099b9342f9dd0bb05df804fb0000c6420000
            f04200002a4300008c425f823b004f9731000000204200b50a2289b00423
            8de80c003f4800224ff07e533e49fef71bfe00230293029b3c4a934205dc
            029b01330293029b9342f9dd05230093019300224ff07e5336483649fef7
            05fe00230393039b314a934205dc039b01330393039b9342f9dd0f220323
            8de80c002e4801224ff07e532d49fef7eefd00230493049b264a934205dc
            049b01330493049b9342f9dd0220fef7a9fd00230593059b1e4a934205dc
            059b01330593059b9342f9dd052202238de80c001d4801224ff07c531949
            fef7c8fd00230693069b134a934205dc069b01330693069b9342f9dd0a22
            03238de80c00124801224ff07e530d49fef7b1fd00230793079b0e4a9342
            05dc079b01330793079b9342f9dd09b05df804fb0000a8420000f0424f97
            31000000884200008c420000aa42000096420000ac420000b0421fd61300
            10b5042384b00a240193154901224ff07e5300941348fef781fd05230193
            124901224ff07e5300941048fef777fd0323019300224ff07e5300940d48
            0d49fef76dfd00230393039b0b4a934205dc039b01330393039b9342f9dd
            04b010bd00bf0000a84200000c430000884200008c420000f0410000b042
            4f97310030b596488db00621fef77efc052404230193934900224ff07e53
            00949148fef73ffd02250a238de828008f4901224ff07e538e48fef734fd
            01224ff07e538c49009401948b48fef72bfd2846fef7f2fc00230393039b
            884a934205dc039b01330393039b9342f9dd0a2202238de80c007e490122
            4ff07e537948fef711fd082203238de80c007d4901224ff07e537c48fef7
            06fd052204238de80c00794801224ff07e536f49fef7fbfc00230493049b
            714a934205dc049b01330493049b9342f9dd0320fef7b6fc052300930193
            01224ff07e5300206749fef7e2fc00230593059b654a934205dc059b0133
            0593059b9342f9dd05230093019300224ff07e535c480021fef7ccfc0023
            0693069b5a4a934205dc069b01330693069b9342f9dd082203238de80c00
            554900224ff07e535248fef7b5fc052204238de80c00514900224ff07e53
            4b48fef7aafc0220fef771fc00230793079b474a934205dc079b01330793
            079b9342f9dd0a2202238de80c00002000224ff07e534349fef790fc0023
            0893089b3c4a934205dc089b01330893089b9342f9dd0320fef74bfc0523
            0093019301224ff07e5338480021fef777fc00230993099b2f4a934205dc
            099b01330993099b9342f9dd05230093019300224ff07e5300202c49fef7
            61fc00230a930a9b244a934205dc0a9b01330a930a9b9342f9dd0220fef7
            1cfc052404230193234901224ff07e5300941448fef747fc002100224ff0
            7e53009401941448fef73efc0a2202238de80c00002101224ff07e530c48
            fef733fcfef7d9fb00230b930b9b134a934205dc0b9b01330b930b9b9342
            f9dd0db030bd00bf0000dc4200000c43000048420000b8420000c8420000
            8c42000016431fd613000000f0410000a0420000f0420000204300003443
            000002434f97310010b5304882b00021fef72afa01212d48fef726fa2b48
            fef7a5f9044604212948fef76cf9012c17d0022c39d025480021fef728fa
            23480121fef724fa224b0822c3f884211f480021fef7f8f91d480121fef7
            f4f902b010bd1a480021fef712fa21461848fef70efa16480021fef7e6f9
            21461448fef7e2f9144cfff775fe00230193019ba34205dc019b01330193
            019ba342f9dd0b48fef765f90128edd0c5e708480021fef7eef906480121
            fef7eaf904480021fef7d4f902480121fef7d0f9fee700bfc405002000e1
            00e0a7cb180000b589b0fef740fb0220fef75ffb00230193019b314a9342
            05dc019b01330193019b9342f9ddfef7a7fc00230293029b2a4a934205dc
            029b01330293029b9342f9ddfef737fd00230393039b234a934205dc039b
            01330393039b9342f9dd0220fef734fb00230493049b1c4a934205dc049b
            01330493049b9342f9ddfef790fdfef7f2fd00230593059b154a934205dc
            059b01330593059b9342f9ddfef7f4fa00230693069b0d4a934205dc069b
            01330693069b9342f9ddfef7e6fa00230793079b064a934205dc079b0133
            0793079b9342f9dd09b05df804fb00bf4f9731001fd6130000b587b0fef7
            cefa0220fef7edfa00230093009b2b4a934205dc009b01330093009b9342
            f9ddfef7f7fd00230193019b244a934205dc019b01330193019b9342f9dd
            fef78dfe00230293029b1d4a934205dc029b01330293029b9342f9dd0220
            fef7c2fafef706fffef750ff00230393039b154a934205dc039b01330393
            039b9342f9ddfef78efa00230493049b0d4a934205dc049b01330493049b
            9342f9ddfef780fa00230593059b064a934205dc059b01330593059b9342
            f9dd07b05df804fb00bf4f9731001fd6130000b5022087b0fef789fafef7
            71ff00230193019b224a934205dc019b01330193019b9342f9ddfff70df8
            00230293029b1c4a934205dc029b01330293029b9342f9dd0220fef76afa
            00230393039b144a934205dc039b01330393039b9342f9ddfff74cf80023
            0493049b0e4a934205dc049b01330493049b9342f9ddfef72cfa00230593
            059b074a934205dc059b01330593059b9342f9dd07b05df804fb00bf9f2e
            63004f97310000b5022087b0fef735fafff7a3f800230093009b294a9342
            05dc009b01330093009b9342f9ddfff735f900230193019b224a934205dc
            019b01330193019b9342f9dd0220fef716fa00230293029b1b4a934205dc
            029b01330293029b9342f9ddfff780f900230393039b144a934205dc039b
            01330393039b9342f9ddfff7b2f900230493049b0d4a934205dc049b0133
            0493049b9342f9ddfef7caf900230593059b064a934205dc059b01330593
            059b9342f9dd07b05df804fb00bf4f97310000b5022087b0fef7d5f9fef7
            29fb00230193019b214a934205dc019b01330193019b9342f9ddfff7e3f9
            00230293029b1a4a934205dc029b01330293029b9342f9ddfff74bfa0023
            0393039b134a934205dc039b01330393039b9342f9ddfef73bfe00230493
            049b0c4a934205dc049b01330493049b9342f9ddfef779f900230593059b
            054a934205dc059b01330593059b9342f9dd07b05df804fb4f97310000b5
            022085b0fef785f9fef76dfe00230093009b1b4a934205dc009b01330093
            009b9342f9ddfff7b5fa00230193019b144a934205dc019b01330193019b
            9342f9ddfff775fb00230293029b0d4a934205dc029b01330293029b9342
            f9ddfff701fcfef735f900230393039b054a934205dc039b01330393039b
            9342f9dd05b05df804fb4f9731002de9f04131228eb040f28f13b0484ff0
            a041fdf70dfe00230193019aad4b9a4205dc019a01320192019a9a42f9dd
            aa480621fef795f8a9480421fef791f8a8480521fef78df8a7480221fef7
            89f8a6480321fef785f800230293029aa34b9a4205dc029a01320292029a
            9a42f9dda0480621fef775f89f480421fef771f89e480521fef76df89d48
            0221fef769f89c480321fef765f800230393039a934b9a4205dc039a0132
            0392039a9a42f9dd90480621fef755f88f480421fef751f88e480521fef7
            4df88d480221fef749f88c480321fef745f800230493049a834b9a4205dc
            049a01320492049a9a42f9dd002601238448844925220696079608960996
            0a960b960c960d96fdf7cafc7d487f490222fdf7f9fcfdf783ff7d487d49
            0222fdf718fe31467a480522fdf755fe7a4d774801210522fdf74ffe0522
            74480221fdf74afe29687248fdf750fe314670484322fdf741fe6e480121
            4322fdf73cfe05226b480221fdf737fe31466848fdf7ddfe67480121fdf7
            d9fe68490822684b4a604ff48040dff8a0811b68c1f88000d8f84870634a
            03eb83034ff0402e27f0400c5b000127c8f848c0cef85460c2f88061c2f8
            8861c2f88461cef81070c1f88001cef80430c2f88071c2f8887108604f48
            2968fdf70afe4a48fdf7d7fc00b38cb19df81830412b22d0422b2ad0432b
            32d0442b3ad0452b42d0472b4ad0492b52d04a2b5ad04ff6e75200230593
            059b9342dddc059b01330593059b9342f9ddd6e7384806a92022fdf784fc
            0446d7e70023374803218df81830fdf7d7fdfff7bffce0e7002332480321
            8df81830fdf7cdfdfff727fdd6e700232d4803218df81830fdf7c3fdfff7
            83fdcce70023284803218df81830fdf7b9fdfff7cdfdc2e723480121fdf7
            b2fd00238df81830fff723feb8e700231e4801218df81830fdf7a5fdfff7
            69feaee719480621fdf79efd00238df81830fff7cffaa4e7002314480521
            8df81830fdf791fdfef773f89ae7d40500201fd61300000020420000f042
            000070420000b44200000c424f973100000048420000024300008c420000
            b8420000f041cc0500200020005024000020c40500200010003020000020
            00e100e014000020000008420080034081f0004102e000bf83f0004330b5
            4fea41044fea430594ea050f08bf90ea020f1fbf54ea000c55ea020c7fea
            645c7fea655c00f0e2804fea5454d4eb5555b8bf6d420cdd2c4480ea0202
            81ea030382ea000083ea010180ea020281ea0303362d88bf30bd11f0004f
            4fea01314ff4801c4cea113102d0404261eb410113f0004f4fea03334cea
            133302d0524263eb430394ea050f00f0a780a4f10104d5f1200e0ddb02fa
            0efc22fa05f2801841f1000103fa0ef2801843fa05f359410ee0a5f12005
            0ef1200e012a03fa0efc28bf4cf0020c43fa05f3c01851ebe37101f00045
            07d54ff0000edcf1000c7eeb00006eeb0101b1f5801f1bd3b1f5001f0cd3
            49085fea30004fea3c0c04f101044fea445212f5800f80f09a80bcf1004f
            08bf5fea500c50f1000041eb045141ea050130bd5fea4c0c404141eb0101
            11f4801fa4f10104e9d191f0000f04bf01460020b1fa81f308bf2033a3f1
            0b03b3f120020cda0c3208dd02f1140cc2f10c0201fa0cf021fa02f10ce0
            02f11402d8bfc2f1200c01fa02f120fa0cfcdcbf41ea0c019040e41aa2bf
            01eb0451294330bd6fea04041f3c1cda0c340edc04f11404c4f1200220fa
            04f001fa02f340ea030021fa04f345ea030130bdc4f10c04c4f1200220fa
            02f001fa04f340ea0300294630bd21fa04f0294630bd94f0000f83f48013
            06bf81f480110134013d4ee77fea645c18bf7fea655c29d094ea050f08bf
            90ea020f05d054ea000c04bf1946104630bd91ea030f1ebf0021002030bd
            5fea545c05d14000494128bf41f0004130bd14f580043cbf01f5801130bd
            01f0004545f0fe4141f470014ff0000030bd7fea645c1abf194610467fea
            655c1cbf0b46024650ea013406bf52ea033591ea030f41f4002130bd00bf
            90f0000f04bf0021704730b54ff4806404f132044ff000054ff0000150e7
            00bf90f0000f04bf0021704730b54ff4806404f1320410f0004548bf4042
            4ff000013ee700bf42004feae2014fea31014fea02701fbf12f07f4393f0
            7f4f81f06051704792f0000f14bf93f07f4f704730b54ff4607401f00045
            21f0004120e700bf50ea010208bf704730b54ff000050ae050ea010208bf
            704730b511f0004502d5404261eb41014ff4806404f132045fea915c3ff4
            dcae4ff003025feadc0c18bf03325feadc0c18bf033202ebdc02c2f12003
            00fa03fc20fa02f001fa03fe40ea0e0021fa02f11444c1e600bf70b54ff0
            ff0c4cf4e06c1cea11541dbf1cea135594ea0c0f95ea0c0f00f0def82c44
            81ea030621ea4c5123ea4c5350ea013518bf52ea033541f4801143f48013
            38d0a0fb02ce4ff00005e1fb02e506f00042e0fb03e54ff00006e1fb0356
            9cf0000f18bf4ef0010ea4f1ff04b6f5007f64f5407404d25fea4e0e6d41
            46eb060642eac62141ea55514feac52040ea5e504feace2eb4f1fd0c88bf
            bcf5e06f1ed8bef1004f08bf5fea500e50f1000041eb045170bd06f00046
            46ea010140ea020081ea0301b4eb5c04c2bfd4eb0c0541ea045170bd41f4
            80114ff0000e013c00f3ab8014f1360fdebf002001f0004170bdc4f10004
            203c35da0c341bdc04f11404c4f1200500fa05f320fa04f001fa05f240ea
            020001f0004221f0004110ebd37021fa04f642eb06015eea430e08bf20ea
            d37070bdc4f10c04c4f1200500fa04f320fa05f001fa04f240ea020001f0
            004110ebd37041f100015eea430e08bf20ead37070bdc4f1200500fa05f2
            4eea020e20fa04f301fa05f243ea020321fa04f001f0004121fa04f220ea
            020000ebd3705eea430e08bf20ead37070bd94f0000f0fd101f000464000
            41eb010111f4801f08bf013cf7d041ea060195f0000f18bf704703f00046
            520043eb030313f4801f08bf013df7d043ea0603704794ea0c0f0cea1355
            18bf95ea0c0f0cd050ea410618bf52ea4306d1d181ea030101f000414ff0
            000070bd50ea410606bf1046194652ea430619d094ea0c0f02d150ea0136
            13d195ea0c0f05d152ea03361cbf104619460ad181ea030101f0004141f0
            fe4141f470014ff0000070bd41f0fe4141f4780170bd70b54ff0ff0c4cf4
            e06c1cea11541dbf1cea135594ea0c0f95ea0c0f00f0a7f8a4eb050481ea
            030e52ea03354fea013100f088804fea03334ff0805545ea131343ea1263
            4fea022245ea111545ea10654fea00260ef000419d4208bf964244f1fd04
            04f5407402d25b084fea3202b61a65eb03055b084fea32024ff480104ff4
            002cb6eb020e75eb030e22bfb61a754640ea0c005b084fea3202b6eb020e
            75eb030e22bfb61a754640ea5c005b084fea3202b6eb020e75eb030e22bf
            b61a754640ea9c005b084fea3202b6eb020e75eb030e22bfb61a754640ea
            dc0055ea060e18d04fea051545ea16754fea06164feac30343ea52734fea
            c2025fea1c1cc0d111f4801f0bd141ea00014ff000004ff0004cb6e711f4
            801f04bf01430020b4f1fd0c88bfbcf5e06f3ff6afaeb5eb030c04bfb6eb
            020c5fea500c50f1000041eb045170bd0ef0004e4eea113114eb5c04c2bf
            d4eb0c0541ea045170bd41f480114ff0000e013c90e645ea060e8de60cea
            135594ea0c0f08bf95ea0c0f3ff43baf94ea0c0f0ad150ea01347ff434af
            95ea0c0f7ff425af104619462ce795ea0c0f06d152ea03353ff4fdae1046
            194622e750ea410618bf52ea43067ff4c5ae50ea41047ff40daf52ea4305
            7ff4ebae12e74fea4102b2f1e04324bfb3f5001cdcf1fe5c0dd901f0004c
            4feac0024cea5070b2f1004f40eb830008bf20f00100704711f0804f21d1
            13f13872bcbf01f00040704741f480114fea5252c2f11802c2f1200c10fa
            0cf320fa02f018bf40f001004feac1234fead32303fa0cfc40ea0c0023fa
            02f34fea4303cce77fea625307d150ea01331ebf4ff0fe4040f440007047
            01f0004040f0fe4040f40000704700bf80f0004002e000bf81f000414200
            1fbf5fea410392ea030f7fea226c7fea236c6ad04fea1262d2eb1363c1bf
            d218414048404140b8bf5b42192b88bf704710f0004f40f4000020f07f40
            18bf404211f0004f41f4000121f07f4118bf494292ea030f3fd0a2f10102
            41fa03fc10eb0c00c3f1200301fa03f100f0004302d5494260eb4000b0f5
            000f13d3b0f1807f06d340084fea310102f10102fe2a51d2b1f1004f40eb
            c25008bf20f0010040ea03007047490040eb000010f4000fa2f10102edd1
            b0fa80fcacf1080cb2eb0c0200fa0cf0aabf00ebc25052421843bcbfd040
            1843704792f0000f81f4000106bf80f400000132013bb5e74fea41037fea
            226c18bf7fea236c21d092ea030f04d092f0000f08bf0846704790ea010f
            1cbf0020704712f07f4f04d1400028bf40f00040704712f100723cbf00f5
            0000704700f0004343f0fe4040f4000070477fea226216bf08467fea2363
            0146420206bf5fea412390ea010f40f4800070474ff0000304e000bf10f0
            004348bf40425fea000c08bf704743f0964301464ff000001ce050ea0102
            08bf70474ff000030ae000bf50ea010208bf704711f0004302d5404261eb
            41015fea010c02bf84460146002043f0b64308bfa3f18053a3f50003bcfa
            8cf2083aa3ebc25310db01fa02fc634400fa02fcc2f12002bcf1004f20fa
            02f243eb020008bf20f00100704702f1200201fa02fcc2f1200250ea4c00
            21fa02f243eb020008bf20eadc7070474ff0ff3c06e000bf4ff0010c02e0
            00bf4ff0010c4df804cd4fea40024fea41037fea226c18bf7fea236c11d0
            01b052ea530c18bf90ea010f58bfb2eb030088bfc81738bf6feae17018bf
            40f0010070477fea226c02d15fea402c05d17fea236ce4d15fea412ce1d0
            5df8040b704700bf844608466146ffe70fb5fff7c9ff002848bf10f1000f
            0fbd4df808edfff7f4ff0cbf012000205df808fb00bf4df808edfff7eaff
            34bf012000205df808fb00bf4df808edfff7e0ff94bf012000205df808fb
            00bf4df808edfff7d2ff94bf012000205df808fb00bf4df808edfff7c8ff
            34bf012000205df808fb00bf4fea4002b2f1fe4f0fd34ff09e03b3eb1262
            0dd94fea002343f0004310f0004f23fa02f018bf404270474ff000007047
            12f1610f01d1420205d110f0004008bf6ff0004070474ff00000704770b5
            0f4e0f4d761bb61018bf002405d0013455f8043b9847a642f9d10a4e0b4d
            00f0e4f8761bb61018bf002406d0013455f8043b9847a642f9d170bd70bd
            00bfb0440000b0440000b8440000b0440000024b13b1024800f005b87047
            000000001d430000014600200246034600f016b838b5084b084ded1aac10
            18bfed1805d0013c55f8043d9847002cf9d1bde8384000f0b2b8b8440000
            bc4400002de9f047254c064625688846d5f8484192469946c4b360681f28
            17dc411c76b104eb8003c3f888a0d4f88851012282401543022ec4f88851
            c3f808911ed0831c6160002044f82380bde8f087144b03b34ff4c870aff3
            00800446d0b1d5f84831002784e888003846c5f848410121c4f88871c4f8
            8c71002ee1d0d1e7d4f88c311a43c4f88c21dae705f5a674c5f84841c1e7
            4ff0ff30bde8f08700bf944400000000000000000000140000001c000000
            240000002c000000340000003c000000440000004c000000540000005c00
            0000640000006c000000740000007c000000840000008c00000000010204
            081020408001020408102040800000000000000010000000180000002000
            000028000000300000003800000040000000480000005000000058000000
            600000006800000070000000780000008000000088000000000100010202
            03034300000028000020f8b500bff8bc08bc9e467047f8b500bff8bc08bc
            9e467047fd420000e5040000c10400000000000000000000003b5808c00e
            1602801d2c04003b5808003b5808003b5808003b5808020000004b000000
            00000000140300207c030020e40300200000000000000000000000000000
            000000000000000000000000000000000000000000009044000000000000
            000000000000000000000000000000000000000000000000000000000000
            000000000000000000000000000000000000000000000000000000000000
            000000000000000000000000000000000000000000000000000000000000
            00000000000000000000000000000000000001000000000000000e33cdab
            34126de6ecde05000b000000000000000000000000000000000000000000
            000000000000000000000000000000000000000000000000000000000000
            000000000000000000000000000000000000000000000000000000000000
            000000000000000000000000000000000000000000000000000000000000
            000000000000000000000000000000000000000000000000000000000000
            000000000000000000000000000000000000000000000000000000000000
            000000000000000000000000000000000000000000000000000000000000
            000000000000000000000000000000000000000000000000000000000000
            000000000000000000000000000000000000000000000000000000000000
            000000000000000000000000000000000000000000000000000000000000
            000000000000000000000000000000000000000000000000000000000000
            000000000000000000000000000000000000000000000000000000000000
            000000000000000000000000000000000000000000000000000000000000
            000000000000000000000000000000000000000000000000000000000000
            000000000000000000000000000000000000000000000000000000000000
            000000000000000000000000000000000000000000000000000000000000
            000000000000000000000000000000000000000000000000000000000000
            000000000000000000000000000000000000000000000000000000000000
            000000000000000000000000000000000000000000000000000000000000
            000000000000000000000000000000000000000000000000000000000000
            000000000000000000000000000000000000000000000000000000000000
            000000000000000000000000000000000000000000000000000000000000
            000000000000000000000000000000000000000000000000000000000000
            000000000000000000000000000000000000000000000000000000000000
            000000000000000000000000000000000000000000000000000000000000
            000000000000000000000000000000000000000000000000000000000000
            000000000000000000000000000000000000000000000000000000000000
            000000000000000000000000000000000000000000000000000000000000
            000000000000000000000000000000000000000000000000000000000000
            0000000000000000000000000000
            <crc>
                ce5a
            </crc>
        </region>
    </nvm>
</Actel_Data_File>
