<Actel_Data_File>
    <format name="NVM File" version="01.00.00"/>
    <header>
        <die>
            M2S025
        </die>
        <family>
            SmartFusion2
        </family>
        <module>
            
        </module>
        <package>
            256 VF
        </package>
        <version>
            11.7.2.2
        </version>
    </header>
    <nvm>
        <region name="PGM_store" address="0x000000" retrieveAddressFromFile="false" size="18240" format="HEX" type="Data Storage" wordSize="8" numberWords="18240" memFile="C:/Users/Hiperwall/Desktop/NewProject/Servo-arm2/SoftConsole/servoarm/Release/servoarm.hex" memType="INTELHEX" memFileTimeStamp="1488922578" clientType="public" program="true">
            00000120910100007f030000810300008303000085030000870300000000
            0000000000000000000000000000890300008b030000000000008d030000
            8f03000091030000930300006d0c0000890c0000990300009b0300009d03
            00009f030000a1030000a3030000a5030000a7030000a9030000ab030000
            11150000af030000b1030000b3030000b503000041060000b9030000bb03
            0000bd030000bf030000c1030000c3030000c5030000450d0000e50d0000
            cb030000cd030000cf030000d1030000d3030000d5030000ed2c0000d903
            0000db030000dd030000df030000e1030000e3030000e5030000e7030000
            e9030000eb030000ed030000ef030000f1030000f3030000f5030000f703
            0000f9030000fb030000fd030000ff030000010400000304000005040000
            07040000090400000b0400000d0400000f04000011040000130400001504
            000017040000190400001b0400001d0400001f0400002104000023040000
            2504000027040000290400002b0400002d0400002f040000310400003304
            000000000000000000004ff0000bdff8be020068dff8b612096801f00301
            00f01c00142801d14bf0020b002901d04bf0010bbbf1000f05d0a748a749
            dff8722200f09ff8a64880470bf0020abaf1000f0cd0dff86e02dff86e12
            02680b680fb44ff000024ff0ff0302600b609d489d4a9e4b022808d1dff8
            3e120a60dff842120a60dff836120b60012808d1dff82e120a60dff82a12
            0a60dff81e120b609348002809d193489349944a00f032f893489449944a
            00f02df894489449954a00f028f894489549dff8e62100f05af8bbf1000f
            12d092489249dff8da2100f051f80bf0020abaf1000f07d00fbc02600b60
            00bfaff30080aff30080dff828020ff2030e00474ff000004ff00001dff8
            1cf2fee72de9f841884225d0b2eb010200d5fee740ea010313f0030302d0
            00f01df819e04ff0000390461211f7d09a421cbff0c8f0c103f10103f8d1
            08f00f08b8f1000f08d004780c7000f1010001f10101b8f10108f6d1bde8
            f88108b54ff0000303780b7000f1010001f10101013af7d108bd884237d0
            00f00306002e14d04ff00405a5eb06044ff0080707fb06f8914669fa08f9
            002c07d080f8009069fa07f900f10100013cf5e74ff000060f46091a8846
            0911914614461546b14206d018bfa0e8340206f10106b142f8d108f00f08
            b8f1000f07d002704fea322200f10100b8f10108f4e77047fee7fee7fee7
            fee7fee7fee7fee7fee7fee7fee7fee7fee7fee7fee7fee7fee7fee7fee7
            fee7fee7fee7fee7fee7fee7fee7fee7fee7fee7fee7fee7fee7fee7fee7
            fee7fee7fee7fee7fee7fee7fee7fee7fee7fee7fee7fee7fee7fee7fee7
            fee7fee7fee7fee7fee7fee7fee7fee7fee7fee7fee7fee7fee7fee7fee7
            fee7fee7fee7fee7fee7fee7fee7fee7fee7fee7fee7fee7fee7fee7fee7
            fee7fee7fee7fee7fee7fee7fee7fee7fee7fee7fee7fee7fee770470000
            0000a2a2a2a2008003400880034010800340308003403480034038800340
            18080240000000f0002000000120d9130000000000000000000001000000
            00000000000000000000000090010000c0040000c0040000f0420000f042
            0000000000205004002050040020e0050020e005002000f00020d9400000
            2932000000000000000000000000000010b5054c237833b9044b13b10448
            aff300800123237010bd5004002000000000c4420000084b10b51bb10848
            0849aff300800848036803b910bd074b002bfbd0bde81040184700bf0000
            0000c442000054040020000000200000000001607047006870470eb503fa
            01f303ea020301686fea020201ea020141ea030101600ebd006800ea0200
            20fa01f0704701807047008870470eb503fa01f303ea020301886fea0202
            01ea020141ea030101800ebd008800ea020020fa01f07047017070470078
            70470eb503fa01f303ea020301786fea020201ea020141ea030101700ebd
            007800ea020020fa01f0704730b4124c82b0236823f004032360636803f0
            01030193019babb181b1451e002201e08a420bd015f8013f013223616368
            03f001030193019b002bf2d11146084602b030bc70471946f9e700bf0060
            01400b4b10b50b4c1988236889b233b10a4a10689847094a002313702360
            084b1a46196841f0010119601368db07fcd410bd8c040020880400209404
            00207804002000600140944af8b553689468dbb21c40a0071dd4e10700d4
            f8bd904e3378022b60d0052b2fd0012b4ed08b4a8c4c936823f001039360
            23683bb18a4a002110689847894a00231370236000233370f8bd1069824e
            20f4ff43327823f07f039db2c0b2052a00f2bb80dfe812f090009c009c00
            a40063004f007c4b1a68002a40f08e80e307c8d57a4c236883b9794b1b68
            002b00f0d180784898472060236833b96d4a0321936823f0010393603170
            23686f4c002b40f0b480674a0321936823f0010393603170f8bd6c4c2388
            9bb2002b40f09280644b1b78002b9dd0bde8f840fff76ebf624c2368002b
            f3d0624d21682868fff73dff23689842ddd223682a681b1a104423602860
            f8bd002db4d1554b534f1a683b6850702bb1104602219847514b3d601d70
            00233370e2077ff574af7be7002d2fd1524a4a4913880d689bb22b4413f8
            013cf12b00f0a5804d49138809889bb28b4206d217881388bfb201339bb2
            e85513801388454a9bb299427ff451af3b4f13883a6899b2002ad3d02846
            9047394a002313703b60cce7002dccd0f12800f09080354b1a68002ac5d0
            1b68984737e7002d3ff435af304b1a68002af5d12fe7002db8d0334b1b78
            9842ead12f4a002313801188264d13882f68013389b29bb2042513807854
            3570a5e7204d2b68002b9fd01f4a0021106898471e4a002313702b6096e7
            244f21883d6889b22846fff7b5fe23889bb298421cd30022174b22801b68
            002b3ad002233370f8bd154d21682868fff7a3fe2a6823680244181a2a60
            2060f8bd0b4b1b78002b3ff436affff7bdfe32e7238805441b1a9bb23d60
            2380f8bd00bf00600140980400208804002094040020780400207c040020
            900400207004002084040020800400208c0400206c040020990400207404
            002003233370f8bd1188104f13888ab29bb23968a8541d4415f8010c0029
            3ff43baf3b68984737e70a4b00271f8019881a88084d013292b21a801b88
            2d688ab29bb20421a8543170ef5427e700bf7c0400208c04002094040020
            2c4a036890422de9f04f1c68d3f81880d3f804c0d3f828e01f6b5e6bdd69
            2cd0254a26491346d1f84890dff898a04ff0030b026080f804b049f48069
            0820c1f84890caf88001886c20f480608864116821f00041116024f00102
            1a60c3f81880c3f804c01a6842f001021a60c3f828e01f635e63dd61bde8
            f08f104a1049936cdff8409043f400734ff0020b4ff0040a016080f804b0
            9364c9f880a1d2f84890036829f4007090640a6822f000420a60d1e700bf
            4005002000100140008003400010004000e100e0026830b49368dd053dd4
            0369c568ab4210d28168194401e0ab420bd211f8014b0133546194680361
            e405f5d5ab4201d230bc70479368dd0510d4c36985699d4224d941691944
            01e0ab4207d211f8014b013354619468c361e405f5d5436a002be6d0c169
            83699942e2d3906810f48070ded1202301e0013bdad050619168c905f9d5
            30bc7047c5680369cfe7436a002bebd1cde710b590f8803082b0022b0cd0
            012b18d003689a68520604d41a6900929a685206fad502b010bd04462368
            03e01969626f00911ab99a685106f8d5f2e700989047f2e7026893685c06
            ebd4036bc16a14698b42019404d2826a0199d154036b0268916801334906
            0363f0d502b010bd00bf70b5036882b01a6a044692071d460ed590f88020
            022a36d0012a9a6803d190e01a6901929a685206fad50222da602a6ad607
            09d594f88020022a28d02046fff75dff23680122da602a6ad00648d42a6a
            51075cd42a6a12070bd5da6a94f8801042f008020229da625cd001297fd0
            0822da602b6a9b060dd402b070bd1969626f0191002a59d19a685606f7d5
            cde7a26f5a61d7e72046fff77bff236a256b002b63d02368002210216262
            6261a261e261d9609a6a0a439a62da6a002642f00c0226612046da62fff7
            19ffe36f266313b12946a06a984723682022da6002b070bd2046fff755ff
            236a2bb1a06a216b98472046fff703ff236810219a6a012022f010026062
            9a62d9602a6a5107a2d5da6a204642f00402da62fff78cfe23680422da60
            97e71a68a16f22f47f0222f47f4242f480721a60596199e7019890472368
            a1e750063ff571af226be16a18699142019004d9a36a01999954226b2368
            9968013249062263f0d55fe72368a4e7002323612046fff7c2fe236878e7
            684620f007018d4601b50348fff73affbde8014085467047400500206846
            20f007018d4601b50348fff72cffbde8014085467047bc0400202de9f041
            224cdff894e02468214d4fea840c0ceb04064fea8608f70108f1402606f5
            8036be44cef8043045447060b1606e68b2f5803f4fea16464fea06466e60
            1bd86b6892b214491a4300236a600b616444104aa3001a445168e40104f1
            844303f5201341f4e001012500245160c3f8c051c3f8cc41bde8f081074b
            a2f5803201f5803100f580301a61d9609860dfe7b8040020084001409c04
            0020c0012842684620f007018d4679b52048204a0368204c03eb83018900
            03f52875012644f825600a4451683344042b08bf002321f4e00151600360
            184b1a697ab11748016804290cbf0021013101609868d9681b7dfff786ff
            bde879408546704702680c4902eb8202920011444a68084c12f4e002f0d1
            0a4d5968012022602a6018700029e8d08847bde8794085467047b4040020
            08400140000028429c040020b8040020684620f007018d46244b31b51b68
            13f4706f19d0224c23689900ca18d20102f1844202f52012d2f808223ab1
            1d4a02205568107015b1a847236899000b441a4adb011a4453680bbb144b
            1b6813f4704f05d0144b04205a68187002b19047bde83140124a12490123
            c2f8c8318546c2f8803ac2f84834c1f8803ac2f8c836c1f8843ac2f84839
            c1f8883a7047054b03205a681870002ad7d09047d5e700400140b4040020
            9c040020080228420000284204002842f0b5044683b030b1072b1e4603d8
            b2f5005f154601d303b0f0bd0f4601f10800d1b2fff75ffb05f47f4146ea
            511107f10c00fff757fb276007f11000fff754fb82070cd520680430fff7
            4efb23688df8070003f11000fff747fb8307f2d40023237103b0f0bd00bf
            98b191b18ab170b504460d468e1820681030fff735fbc307f9d515f8011b
            2068fff72cfbb542f2d170bd7047f8b508b101b112b900252846f8bd0446
            0068174610300e46fff71cfb2379820743ea00032371efd5013e002501e0
            bd42ebd0206801350430fff70cfb06f8010f20681030fff706fb23790343
            23718307edd42846f8bd00bf034628b100790022c0f382001a717047ff20
            704738b5104b082905465c5c00680cd90c30fff7eafa2b6840ea0401c9b2
            03f10c00bde83840fff7deba0830fff7ddfa2b6840ea0401c9b203f10800
            bde83840fff7d1ba00bf5c42000038b5104b082905465c5c00680cd90c30
            fff7c6fa2b6820ea0401c9b203f10c00bde83840fff7baba0830fff7b9fa
            2b6820ea0401c9b203f10800bde83840fff7adba00bf5c42000070b50446
            16461d46016001f108000021fff7a0fa206800210c30fff79bfa31462068
            fff767fa206829460430fff762fa206800211030fff75dfa206800211830
            fff758fa206800212030fff753fa206800212830fff74efa206800213030
            fff749fa206800213830fff744fa206800214030fff73ffa206800214830
            fff73afa206800215030fff735fa206800215830fff730fa206800216030
            fff72bfa206800216830fff726fa206800217030fff721fa206800217830
            fff71cfa206800218030fff717fa206800218830bde87040fff710ba70b5
            4c1e0f2c04d822b9bde87040fff769bf70bd06460c4615460b4a036852f8
            210000211844fff7fbf9084a336852f8240029461844fff7f3f930462146
            bde87040fff72bbf00bf704200001842000070b506460c46027101f18005
            3160204600210434fff70cfaac42f8d13379012b21d00ad3022b07d13068
            4ff0ff318030bde87040fff7ccb970bd3068ff218030fff7f6f93068ff21
            8430fff7f1f93068ff218830fff7ecf93068ff218c30bde87040fff7e5b9
            30684ff6ff718030fff7c7f930684ff6ff71bde870408430fff7bfb900bf
            1f290b4600d970470068114600eb8300fff79cb938b503790446012b0d46
            21d008d3022b05d1bde838400068a030fff78db938bd0068c9b2a030fff7
            b7f92068c5f30721a430fff7b1f92068c5f30741a830fff7abf92068290e
            ac30bde83840fff7a4b9006889b2a030fff787f92068290ca430bde83840
            fff780b9037970b5012b044624d009d3022b05d1bde8704000689030fff7
            5cb9002070bd00689030fff786f9054620689430fff781f9064620689830
            fff77cf92368000440ea062403f19c00fff774f92c4344ea006070bd0068
            9030fff754f9054620689430fff74ff945ea004070bd037970b5012b0446
            24d009d3022b05d1bde870400068a030fff726b9002070bd0068a030fff7
            38f905462068a430fff733f906462068a830fff72ef92368000440ea0624
            03f1ac00fff726f92c4344ea006070bd0068a030fff71ef905462068a430
            fff719f945ea004070bd1f29006800d9704710b500eb81042046fff724f9
            40f00801c9b22046bde81040fff71ab91f29006800d9704710b500eb8104
            2046fff712f920f008012046bde81040fff709b900bf38b503790124012b
            054604fa01f420d009d3022b06d100682146bde838408030fff7c6b838bd
            006821468030fff7f0f82868210a8430fff7ebf82868210c8830fff7e6f8
            2868210e8c30bde83840fff7dfb8006821468030fff7c2f82868210c8430
            bde83840fff7bbb800bf4ff602020c4bd3f84c11914206d00b4a536943f4
            00735361fff720b8d3f8982042f48072c3f89820d3f8982022f08062c3f8
            9820ebe700bf0080034000ed00e0f0b52e4b83b0d3f89820510117d4d3f8
            9820d2042ed56a4629490868496803c2d3f89c2002a9c2f382120a4412f8
            082c012a36d003d3dff8bce0224b09e0d3f85011214a11f0040f204b18bf
            1346dff8a4e01f4f1f4e204d204c2148214a2249cef800303b6033602b60
            23600360116003b0f0bd1d4bdff87cc0dff854e0154f164e174d1748184c
            134a1949ccf80030cef800303b6033602b600460116003b0f0bddff850e0
            0a4f0a4e0b4d0b4c0c480c4a0d494ff40043d2e700bf00800340b4420000
            40420f0080f0fa0240787d0114000020180000200c000020100000200400
            002008000020c00e1602003b5808801d2c041c00002010b50d4c2046fff7
            cffe02460b4b20461a601a6882f007021a601968fff75afe074808490222
            fff7e3fc4ff0402301221a61bff34f8f10bdc405002020000020cc050020
            24000020012910b50c460ad0022908d0032920d0042904d005292ad00629
            36d010bd02f04ff90022002301f0edff1fa3d3e9002302f09af9244b0022
            01f0e4ff02f0a6fb02f078fd2146bde8104002461f48fff7a9bd02f035f9
            0022002301f0d3ff14a3d3e9002302f080f90022194be4e702f027f90022
            002301f0c5ff0fa3d3e9002302f072f90022134bd6e702f019f900220023
            01f0b7ff0aa3d3e9002302f064f900220d4bc8e700bf181818181818c83f
            1b1b1b1b1b1bcb3f5a5a5a5a5a5aca3fd9d8d8d8d8d8c83f00002840d405
            002000002040000022400000264008b50b480621fff78dff0a480421fff7
            89ff09480521fff785ff08480221fff781ffbde8084006480321fff77bbf
            00bf0000dc4200002043000018420000b8420000f04100b583b0a0b10128
            1cd002281fd0032813d000230193019b0f4a934205dc019b01330193019b
            9342f9dd03b05df804fb0a480621fff754ffebe709480621fff74fffe6e7
            07480621fff74affe1e706480621fff745ffdce787f504000000f0420000
            dc4200000243000048422de9f043012a83b09046054689461e462ad02abb
            0846294602f0b2fc00b341f664174c460a9b07fb03f720460b99fff721ff
            cdf80480019b9f4205dd019b01330193019b9f42f9dc3146204602f02cfb
            81462846494602f089fc08b14c46e4e7204603b0bde8f0830846294602f0
            7efc0028f5d041f664174c460a9b4ff0000807fb03f720460b99fff7f4fe
            cdf80080009b9f4205dd009b01330093009bbb42f9db3146204602f001fb
            81462846494602f066fc0028d3d04c46e3e710b505228ab002238de80c00
            5f4800224ff07e535e49fff795ff00230293029b5c4a934205dc029b0133
            0293029b9342f9dd0220fff750ff0a2203238de80c00554801224ff07e53
            5449fff77bff00230393039b4f4a934205dc039b01330393039b9342f9dd
            0a2204238de80c004c4800224ff07e534b49fff764ff00230493049b494a
            934205dc049b01330493049b9342f9dd0320fff71fff00230593059b424a
            934205dc059b01330593059b9342f9dd0a2203238de80c003d4800224ff0
            7e533549fff73eff00230693069b314a934205dc069b01330693069b9342
            f9dd0a2203238de80c002b4801224ff07e532f49fff727ff00230793079b
            2d4a934205dc079b01330793079b9342f9dd0220fff7e2fe00230893089b
            264a934205dc089b01330893089b9342f9dd0a2403230193194900224ff0
            7e5300941748fff701ff04230193164901224ff07e5300941448fff7f7fe
            0223019301224ff07e5300940b480949fff7edfe00230993099b104a9342
            05dc099b01330993099b9342f9ddfff787fe0ab010bd00bf0000b6420000
            b8429f2e63000000a0420000f04100004042000020433fd2df03ff741903
            000082424f97310010b5022388b00a2401933a4901224ff07c5300943848
            fff7b9fe0323019301224ff07e53009433483449fff7affe00230393039b
            324a934205dc039b01330393039b9342f9dd0a2204238de80c002d480022
            4ff07e532c49fff798fe00230493049b2a4a934205dc049b01330493049b
            9342f9dd0320fff753fe00230593059b1f4a934205dc059b01330593059b
            9342f9dd0a2204238de80c001d4801224ff07c531849fff772fe00230693
            069b194a934205dc069b01330693069b9342f9dd0a2203238de80c001348
            00224ff07e531249fff75bfe00230793079b084a934205dc079b01330793
            079b9342f9dd08b010bd00bf0000b8420000e6420000f0414f9731000000
            a842000020439f2e6300000096422fc11d00000070420000ba4210b50223
            86b005240193214900224ff07c5300941f48fff729fe0a238de818000122
            4ff07e531c481c49fff71ffe00230393039b1a4a934205dc039b01330393
            039b9342f9dd00230493049b154a934205dc049b01330493049b9342f9dd
            0a2203238de80c00104801224ff07e530f49fff7fcfd00230593059b094a
            934205dc059b01330593059b9342f9dd06b010bd0000e642000078420000
            4842000018424f9731009f2e630000009c420000704200b50a2285b00323
            8de80c00164800224ff07e531549fff7d1fd00230293029b134a934205dc
            029b01330293029b9342f9dd0a2205238de80c000e4800224ff07e530949
            fff7bafd00230393039b084a934205dc039b01330393039b9342f9dd05b0
            5df804fb00bf000048420000a0424f9731000000184210b5214884b00a24
            06230146019301224ff07e530094fff795fd042301931b4901224ff07e53
            00941948fff78bfd194805230146019301224ff07e530094fff781fd0223
            0193144901224ff07e5300941248fff777fd0323019300224ff07e530094
            0f480f49fff76dfd00230393039b0d4a934205dc039b01330393039b9342
            f9dd04b010bd00bf0000dc42000094420000204300001842000078420000
            b8420000f041000048424f97310000b50a2289b002238de80c004ff08540
            00224ff07c533e49fff73efd00230293029b3c4a934205dc029b01330293
            029b9342f9dd0a2203238de80c00364801224ff07e533549fff727fd0023
            0393039b334a934205dc039b01330393039b9342f9dd0a2204238de80c00
            2e4800224ff07e532d49fff710fd00230493049b2b4a934205dc049b0133
            0493049b9342f9dd0320fff7cbfc00230593059b234a934205dc059b0133
            0593059b9342f9dd0a2204238de80c001e4800224ff07e531949fff7eafc
            00230693069b154a934205dc069b01330693069b9342f9dd0a2203238de8
            0c00134800224ff07e531249fff7d3fc00230793079b104a934205dc079b
            01330793079b9342f9dd09b05df804fb0000b7420feb09000000d8420000
            f0414f9731000000c042000020436f6d45000000bc4200008c420000dc42
            9f2e630000b5052289b002238de80c00384801224ff07c533749fff79ffc
            00230393039b354a934205dc039b01330393039b9342f9dd0a2205238de8
            0c00304800224ff07e532f49fff788fc00230493049b2d4a934205dc049b
            01330493049b9342f9dd0a2204238de80c00274800224ff07e532649fff7
            71fc00230593059b214a934205dc059b01330593059b9342f9dd0a220323
            8de80c001e4801224ff07e531d49fff75afc00230693069b134a934205dc
            069b01330693069b9342f9dd0a2204238de80c00144800224ff07e530e49
            fff743fc00230793079b0a4a934205dc079b01330793079b9342f9dd09b0
            5df804fb0000e04200007e429f2e63000000e041000018424f9731000000
            b0420000bc420000ae4200008c4200009c4200b50a2285b003238de80c00
            0a4800224ff07e530949fff711fc00230393039b074a934205dc039b0133
            0393039b9342f9dd05b05df804fb000048420000ae424f97310010b52148
            84b00a2406230146019301224ff07e530094fff7effb042301931b490122
            4ff07e5300941948fff7e5fb05230193184900224ff07e5300941648fff7
            dbfb02230193154901224ff07c5300941348fff7d1fb0323019300224ff0
            7e53009410481049fff7c7fb00230393039b0e4a934205dc039b01330393
            039b9342f9dd04b010bd00bf0000dc420000a642000020430000e0410000
            18420000e0420000b8420000f041000048424f97310000b50a2289b00223
            8de80c00404800224ff07c533f49fff797fb00230293029b3d4a934205dc
            029b01330293029b9342f9dd0a2203238de80c00384801224ff07c533749
            fff780fb00230393039b354a934205dc039b01330393039b9342f9dd0a22
            04238de80c002a4800224ff07c532d49fff769fb00230493049b294a9342
            05dc049b01330493049b9342f9dd0320fff724fb00230593059b244a9342
            05dc059b01330593059b9342f9dd0a2204238de80c001e4800224ff07c53
            1549fff743fb00230693069b164a934205dc069b01330693069b9342f9dd
            0f2203238de80c00144800224ff07e530c49fff72cfb00230793079b104a
            934205dc079b01330793079b9342f9dd09b05df804fb00bf0000aa420000
            b8425f823b000000ce420000f0412fc11d00000020434f9731000000b042
            000096429f2e630010b50a2286b002238de80c00264800224ff07e532549
            fff7f9fa00230393039b234a934205dc039b01330393039b9342f9dd0a22
            04238de80c001e4800224ff07e531d49fff7e2fa00230493049b1b4a9342
            05dc049b01330493049b9342f9dd0a2405230193164900224ff07e530094
            1448fff7cbfa0323019301224ff07e53009411481149fff7c1fa00230593
            059b074a934205dc059b01330593059b9342f9dd06b010bd00bf00005442
            0000aa424f9731000000a0420000b0427f584f00000018420000c8410000
            ae420000964210b5032384b00a2401931a4900224ff07e5300941848fff7
            91fa04230193174901224ff07e5300941548fff787fa0523019311490122
            4ff07e5300941148fff77dfa0223019301224ff07e5300940e480e49fff7
            73fa00230393039b0c4a934205dc039b01330393039b9342f9dd04b010bd
            00bf0000ae420000f0410000a04200002043000018420000b84200005442
            4f97310000b50a2289b002238de80c00404800224ff07e533f49fff747fa
            00230293029b3d4a934205dc029b01330293029b9342f9dd0a2204238de8
            0c00384800224ff07c533749fff730fa00230393039b354a934205dc039b
            01330393039b9342f9dd0a2203238de80c002f4801224ff07e532e49fff7
            19fa00230493049b264a934205dc049b01330493049b9342f9dd0320fff7
            d4f900230593059b1f4a934205dc059b01330593059b9342f9dd0a220423
            8de80c001e4800224ff07c531749fff7f3f900230693069b134a934205dc
            069b01330693069b9342f9dd0a2203238de80c00144800224ff07e530f49
            fff7dcf900230793079b104a934205dc079b01330793079b9342f9dd09b0
            5df804fb00bf000054420000b8424f97310000009d42000020431fd61300
            0000b4420000f0410000964200008c429f2e630000b50a2287b002238de8
            0c002d4801224ff07e532c49fff7a9f900230293029b2a4a934205dc029b
            01330293029b9342f9dd0a2205238de80c00254801224ff07e532449fff7
            92f900230393039b224a934205dc039b01330393039b9342f9dd0a220423
            8de80c001c4800224ff07e531b49fff77bf900230493049b194a934205dc
            049b01330493049b9342f9dd0a2203238de80c00144801224ff07e530f49
            fff764f900230593059b104a934205dc059b01330593059b9342f9dd07b0
            5df804fb00bf0000b442000054429f2e630000005c42000018421fd61300
            00008c42000096426f6d45000000a8424f97310000b50a2285b003238de8
            0c00164801224ff07e531549fff731f900230293029b134a934205dc029b
            01330293029b9342f9dd052202238de80c000e4801224ff07c530d49fff7
            1af900230393039b0b4a934205dc039b01330393039b9342f9dd05b05df8
            04fb00bf0000ae420000a8424f9731000000b6420000b4421fd6130010b5
            052386b00a240193274900224ff07e5300942548fff7f1f8042301930122
            4ff07e53009422482249fff7e7f800230393039b204a934205dc039b0133
            0393039b9342f9dd0a2203238de80c001b4800224ff07e531a49fff7d0f8
            00230493049b154a934205dc049b01330493049b9342f9dd0a2202238de8
            0c00114801224ff07e531049fff7b9f800230593059b0e4a934205dc059b
            01330593059b9342f9dd06b010bd00bf00005c4200001842000020430000
            92424f9731000000f0410000ae420000b8420000b6429f2e630000b50a22
            87b004238de80c00304901224ff07c532f48fff789f80523009301930122
            4ff07e532c482c49fff77ff800230293029b2a4a934205dc029b01330293
            029b9342f9dd05230093019300224ff07e5324482049fff769f800230393
            039b214a934205dc039b01330393039b9342f9dd05230093019301224ff0
            7e5316481849fff753f800230493049b164a934205dc049b01330493049b
            9342f9dd05230093019300224ff07e530c480a49fff73df800230593059b
            094a934205dc059b01330593059b9342f9dd07b05df804fb000096420000
            e64200003443000018425f823b000000a0404f97310000b50a228bb00523
            8de80c004b4800224ff07e534a49fff713f800230393039b484a934205dc
            039b01330393039b9342f9dd0a2204238de80c00434800224ff07e534249
            fef7fcff00230493049b404a934205dc049b01330493049b9342f9dd0a22
            03238de80c003a4801224ff07e533949fef7e5ff00230593059b374a9342
            05dc059b01330593059b9342f9dd0a2204238de80c00324800224ff07e53
            2a49fef7ceff00230693069b264a934205dc069b01330693069b9342f9dd
            0220fef789ff00230793079b1e4a934205dc079b01330793079b9342f9dd
            0a2203238de80c00204800224ff07e531a49fef7a8ff00230893089b164a
            934205dc089b01330893089b9342f9dd15480a2204238de80c0001460122
            4ff07e53fef791ff00230993099b074a934205dc099b01330993099b9342
            f9dd0bb05df804fb0000f041000018424f9731000000b4420000e6429f2e
            63000000aa4200007042efc594000000a6420000484200b50a2287b00423
            8de80c00304901224ff07e532f48fef75fff05230093019301224ff07e53
            2c482c49fef755ff00230293029b2a4a934205dc029b01330293029b9342
            f9dd05230093019300224ff07e5324482049fef73fff00230393039b214a
            934205dc039b01330393039b9342f9dd05230093019301224ff07e531648
            1849fef729ff00230493049b164a934205dc049b01330493049b9342f9dd
            05230093019300224ff07e530c480a49fef713ff00230593059b094a9342
            05dc059b01330593059b9342f9dd07b05df804fb0000b0420000f0420000
            3443000018425f823b000000a0404f97310000b50a2289b004238de80c00
            344800224ff07e533349fef7e9fe00230393039b314a934205dc039b0133
            0393039b9342f9dd0f2203238de80c002c4801224ff07e532b49fef7d2fe
            00230493049b294a934205dc049b01330493049b9342f9dd0220fef78dfe
            00230593059b1e4a934205dc059b01330593059b9342f9dd0a2203238de8
            0c001c4801224ff07e531749fef7acfe00230693069b134a934205dc069b
            01330693069b9342f9dd052202238de80c00114801224ff07c530b49fef7
            95fe00230793079b0d4a934205dc079b01330793079b9342f9dd09b05df8
            04fb0000b2420000f0424f9731000000aa42000096429f2e63000000b042
            0000ac421fd6130010b5042384b00a240193104901224ff07e5300940e48
            fef767fe0323019300224ff07e5300940b480b49fef75dfe00230393039b
            094a934205dc039b01330393039b9342f9dd04b010bd00bf0000b2420000
            20430000f0410000b0424f97310030b596488db00621fef778fd05240423
            0193934900224ff07e5300949148fef733fe02250a238de828008f490122
            4ff07e538e48fef728fe01224ff07e538c49009401948b48fef71ffe2846
            fef7e6fd00230393039b884a934205dc039b01330393039b9342f9dd0a22
            02238de80c007e4901224ff07e537948fef705fe082203238de80c007d49
            01224ff07e537c48fef7fafd052204238de80c00794801224ff07e536f49
            fef7effd00230493049b714a934205dc049b01330493049b9342f9dd0320
            fef7aafd05230093019301224ff07e5300206749fef7d6fd00230593059b
            654a934205dc059b01330593059b9342f9dd05230093019300224ff07e53
            5c480021fef7c0fd00230693069b5a4a934205dc069b01330693069b9342
            f9dd082203238de80c00554900224ff07e535248fef7a9fd052204238de8
            0c00514900224ff07e535048fef79efd0220fef765fd00230793079b474a
            934205dc079b01330793079b9342f9dd0a2202238de80c00002000224ff0
            7e533949fef784fd00230893089b3c4a934205dc089b01330893089b9342
            f9dd0320fef73ffd05230093019301224ff07e5332480021fef76bfd0023
            0993099b2f4a934205dc099b01330993099b9342f9dd0523009301930022
            4ff07e5300202649fef755fd00230a930a9b244a934205dc0a9b01330a93
            0a9b9342f9dd0220fef710fd052404230193214901224ff07e5300941448
            fef73bfd002100224ff07e53009401941448fef732fd0a2202238de80c00
            002101224ff07e530c48fef727fdfef7cdfc00230b930b9b114a934205dc
            0b9b01330b930b9b9342f9dd0db030bd00bf0000dc420000204300004842
            0000b8420000c8420000184200003e431fd613000000f0410000a0420000
            f042000016439f2e630010b5304882b00021fef728fb01212d48fef724fb
            2b48fef7a3fa044604212948fef76afa012c17d0022c39d025480021fef7
            26fb23480121fef722fb224b0822c3f884211f480021fef7f6fa1d480121
            fef7f2fa02b010bd1a480021fef710fb21461848fef70cfb16480021fef7
            e4fa21461448fef7e0fa144cfff779fe00230193019ba34205dc019b0133
            0193019ba342f9dd0b48fef763fa0128edd0c5e708480021fef7ecfa0648
            0121fef7e8fa04480021fef7d2fa02480121fef7cefafee700bfc4050020
            00e100e0a7cb180000b589b0fef738fc0220fef757fc00230193019b314a
            934205dc019b01330193019b9342f9ddfef7b9fd00230293029b2a4a9342
            05dc029b01330293029b9342f9ddfef73bfe00230393039b244a934205dc
            039b01330393039b9342f9dd0220fef72cfc00230493049b1d4a934205dc
            049b01330493049b9342f9ddfef776fefef7b0fe00230593059b164a9342
            05dc059b01330593059b9342f9ddfef7ecfb00230693069b0d4a934205dc
            069b01330693069b9342f9ddfef7defb00230793079b074a934205dc079b
            01330793079b9342f9dd09b05df804fb00bf4f9731009f2e63001fd61300
            00b589b0fef7c4fb0220fef7e3fb00230193019b314a934205dc019b0133
            0193019b9342f9ddfef7bffe00230293029b2b4a934205dc029b01330293
            029b9342f9ddfef751ff00230393039b234a934205dc039b01330393039b
            9342f9dd0220fef7b8fb00230493049b1c4a934205dc049b01330493049b
            9342f9ddfef7c2fffef7e2ff00230593059b164a934205dc059b01330593
            059b9342f9ddfef778fb00230693069b0e4a934205dc069b01330693069b
            9342f9ddfef76afb00230793079b064a934205dc079b01330793079b9342
            f9dd09b05df804fb00bf9f2e63004f9731001fd6130000b5022087b0fef7
            71fbfff701f800230193019b224a934205dc019b01330193019b9342f9dd
            fff791f800230293029b1b4a934205dc029b01330293029b9342f9dd0220
            fef752fb00230393039b144a934205dc039b01330393039b9342f9ddfff7
            dcf800230493049b0d4a934205dc049b01330493049b9342f9ddfef714fb
            00230593059b074a934205dc059b01330593059b9342f9dd07b05df804fb
            00bf4f9731009f2e630000b5022087b0fef71dfbfff7fdf800230093009b
            294a934205dc009b01330093009b9342f9ddfff78df900230193019b224a
            934205dc019b01330193019b9342f9dd0220fef7fefa00230293029b1c4a
            934205dc029b01330293029b9342f9ddfff7e8f900230393039b144a9342
            05dc039b01330393039b9342f9ddfff71afa00230493049b0d4a934205dc
            049b01330493049b9342f9ddfef7b2fa00230593059b074a934205dc059b
            01330593059b9342f9dd07b05df804fb00bf4f9731009f2e630000b50220
            87b0fef7bbfafef729fc00230193019b214a934205dc019b01330193019b
            9342f9ddfff74bfa00230293029b1b4a934205dc029b01330293029b9342
            f9ddfff7b3fa00230393039b134a934205dc039b01330393039b9342f9dd
            fef7c9fe00230493049b0c4a934205dc049b01330493049b9342f9ddfef7
            5ffa00230593059b054a934205dc059b01330593059b9342f9dd07b05df8
            04fb9f2e63004f97310000b5022085b0fef769fafef7f9fe00230093009b
            1b4a934205dc009b01330093009b9342f9ddfff723fb00230193019b154a
            934205dc019b01330193019b9342f9ddfff78bfb00230293029b0d4a9342
            05dc029b01330293029b9342f9ddfff7fffbfef719fa00230393039b054a
            934205dc039b01330393039b9342f9dd05b05df804fb9f2e63004f973100
            2de9f04131228eb040f28f13b0484ff0a041fdf7f5fe00230193019aad4b
            9a4205dc019a01320192019a9a42f9ddaa480621fef77df9a9480421fef7
            79f9a8480521fef775f9a7480221fef771f9a6480321fef76df900230293
            029aa34b9a4205dc029a01320292029a9a42f9dda0480621fef75df99f48
            0421fef759f99e480521fef755f99d480221fef751f994480321fef74df9
            00230393039a934b9a4205dc039a01320392039a9a42f9dd90480621fef7
            3df98f480421fef739f98e480521fef735f98d480221fef731f984480321
            fef72df900230493049a834b9a4205dc049a01320492049a9a42f9dd0026
            012383488349252206960796089609960a960b960c960d96fdf7b2fd7c48
            7e490222fdf7e1fdfef76bf87c487c490222fdf700ff314679480522fdf7
            3dff794d764801210522fdf737ff052273480221fdf732ff29687148fdf7
            38ff31466f484322fdf729ff6d4801214322fdf724ff05226a480221fdf7
            1fff31466748fdf7c5ff66480121fdf7c1ff67490822674b4a604ff48040
            dff89c811b68c1f88000d8f84870624a03eb83034ff0402e27f0400c5b00
            0127c8f848c0cef85460c2f88061c2f88861c2f88461cef81070c1f88001
            cef80430c2f88071c2f8887108604e482968fdf7f2fe4948fdf7bffd00b3
            8cb19df81830412b22d0422b2ad0432b32d0442b3ad0452b42d0472b4ad0
            492b52d04a2b5ad04ff6e75200230593059b9342dddc059b01330593059b
            9342f9ddd6e7374806a92022fdf76cfd0446d7e70023364803218df81830
            fdf7bffefff7a9fce0e70023314803218df81830fdf7b5fefff713fdd6e7
            00232c4803218df81830fdf7abfefff77dfdcce70023274803218df81830
            fdf7a1fefff7c7fdc2e722480121fdf79afe00238df81830fff71ffeb8e7
            00231d4801218df81830fdf78dfefff767feaee718480621fdf786fe0023
            8df81830fff7bdfaa4e70023134805218df81830fdf779fefef755f99ae7
            d40500201fd613000000c842000002430000f0410000b44200000c424f97
            31000000dc4200002043000018420000b842cc0500200020005024000020
            c4050020001000302000002000e100e014000020000008420080034081f0
            004102e000bf83f0004330b54fea41044fea430594ea050f08bf90ea020f
            1fbf54ea000c55ea020c7fea645c7fea655c00f0e2804fea5454d4eb5555
            b8bf6d420cdd2c4480ea020281ea030382ea000083ea010180ea020281ea
            0303362d88bf30bd11f0004f4fea01314ff4801c4cea113102d0404261eb
            410113f0004f4fea03334cea133302d0524263eb430394ea050f00f0a780
            a4f10104d5f1200e0ddb02fa0efc22fa05f2801841f1000103fa0ef28018
            43fa05f359410ee0a5f120050ef1200e012a03fa0efc28bf4cf0020c43fa
            05f3c01851ebe37101f0004507d54ff0000edcf1000c7eeb00006eeb0101
            b1f5801f1bd3b1f5001f0cd349085fea30004fea3c0c04f101044fea4452
            12f5800f80f09a80bcf1004f08bf5fea500c50f1000041eb045141ea0501
            30bd5fea4c0c404141eb010111f4801fa4f10104e9d191f0000f04bf0146
            0020b1fa81f308bf2033a3f10b03b3f120020cda0c3208dd02f1140cc2f1
            0c0201fa0cf021fa02f10ce002f11402d8bfc2f1200c01fa02f120fa0cfc
            dcbf41ea0c019040e41aa2bf01eb0451294330bd6fea04041f3c1cda0c34
            0edc04f11404c4f1200220fa04f001fa02f340ea030021fa04f345ea0301
            30bdc4f10c04c4f1200220fa02f001fa04f340ea0300294630bd21fa04f0
            294630bd94f0000f83f4801306bf81f480110134013d4ee77fea645c18bf
            7fea655c29d094ea050f08bf90ea020f05d054ea000c04bf1946104630bd
            91ea030f1ebf0021002030bd5fea545c05d14000494128bf41f0004130bd
            14f580043cbf01f5801130bd01f0004545f0fe4141f470014ff0000030bd
            7fea645c1abf194610467fea655c1cbf0b46024650ea013406bf52ea0335
            91ea030f41f4002130bd00bf90f0000f04bf0021704730b54ff4806404f1
            32044ff000054ff0000150e700bf90f0000f04bf0021704730b54ff48064
            04f1320410f0004548bf40424ff000013ee700bf42004feae2014fea3101
            4fea02701fbf12f07f4393f07f4f81f06051704792f0000f14bf93f07f4f
            704730b54ff4607401f0004521f0004120e700bf50ea010208bf704730b5
            4ff000050ae050ea010208bf704730b511f0004502d5404261eb41014ff4
            806404f132045fea915c3ff4dcae4ff003025feadc0c18bf03325feadc0c
            18bf033202ebdc02c2f1200300fa03fc20fa02f001fa03fe40ea0e0021fa
            02f11444c1e600bf70b54ff0ff0c4cf4e06c1cea11541dbf1cea135594ea
            0c0f95ea0c0f00f0def82c4481ea030621ea4c5123ea4c5350ea013518bf
            52ea033541f4801143f4801338d0a0fb02ce4ff00005e1fb02e506f00042
            e0fb03e54ff00006e1fb03569cf0000f18bf4ef0010ea4f1ff04b6f5007f
            64f5407404d25fea4e0e6d4146eb060642eac62141ea55514feac52040ea
            5e504feace2eb4f1fd0c88bfbcf5e06f1ed8bef1004f08bf5fea500e50f1
            000041eb045170bd06f0004646ea010140ea020081ea0301b4eb5c04c2bf
            d4eb0c0541ea045170bd41f480114ff0000e013c00f3ab8014f1360fdebf
            002001f0004170bdc4f10004203c35da0c341bdc04f11404c4f1200500fa
            05f320fa04f001fa05f240ea020001f0004221f0004110ebd37021fa04f6
            42eb06015eea430e08bf20ead37070bdc4f10c04c4f1200500fa04f320fa
            05f001fa04f240ea020001f0004110ebd37041f100015eea430e08bf20ea
            d37070bdc4f1200500fa05f24eea020e20fa04f301fa05f243ea020321fa
            04f001f0004121fa04f220ea020000ebd3705eea430e08bf20ead37070bd
            94f0000f0fd101f00046400041eb010111f4801f08bf013cf7d041ea0601
            95f0000f18bf704703f00046520043eb030313f4801f08bf013df7d043ea
            0603704794ea0c0f0cea135518bf95ea0c0f0cd050ea410618bf52ea4306
            d1d181ea030101f000414ff0000070bd50ea410606bf1046194652ea4306
            19d094ea0c0f02d150ea013613d195ea0c0f05d152ea03361cbf10461946
            0ad181ea030101f0004141f0fe4141f470014ff0000070bd41f0fe4141f4
            780170bd70b54ff0ff0c4cf4e06c1cea11541dbf1cea135594ea0c0f95ea
            0c0f00f0a7f8a4eb050481ea030e52ea03354fea013100f088804fea0333
            4ff0805545ea131343ea12634fea022245ea111545ea10654fea00260ef0
            00419d4208bf964244f1fd0404f5407402d25b084fea3202b61a65eb0305
            5b084fea32024ff480104ff4002cb6eb020e75eb030e22bfb61a754640ea
            0c005b084fea3202b6eb020e75eb030e22bfb61a754640ea5c005b084fea
            3202b6eb020e75eb030e22bfb61a754640ea9c005b084fea3202b6eb020e
            75eb030e22bfb61a754640eadc0055ea060e18d04fea051545ea16754fea
            06164feac30343ea52734feac2025fea1c1cc0d111f4801f0bd141ea0001
            4ff000004ff0004cb6e711f4801f04bf01430020b4f1fd0c88bfbcf5e06f
            3ff6afaeb5eb030c04bfb6eb020c5fea500c50f1000041eb045170bd0ef0
            004e4eea113114eb5c04c2bfd4eb0c0541ea045170bd41f480114ff0000e
            013c90e645ea060e8de60cea135594ea0c0f08bf95ea0c0f3ff43baf94ea
            0c0f0ad150ea01347ff434af95ea0c0f7ff425af104619462ce795ea0c0f
            06d152ea03353ff4fdae1046194622e750ea410618bf52ea43067ff4c5ae
            50ea41047ff40daf52ea43057ff4ebae12e74fea4102b2f1e04324bfb3f5
            001cdcf1fe5c0dd901f0004c4feac0024cea5070b2f1004f40eb830008bf
            20f00100704711f0804f21d113f13872bcbf01f00040704741f480114fea
            5252c2f11802c2f1200c10fa0cf320fa02f018bf40f001004feac1234fea
            d32303fa0cfc40ea0c0023fa02f34fea4303cce77fea625307d150ea0133
            1ebf4ff0fe4040f44000704701f0004040f0fe4040f40000704700bf80f0
            004002e000bf81f0004142001fbf5fea410392ea030f7fea226c7fea236c
            6ad04fea1262d2eb1363c1bfd218414048404140b8bf5b42192b88bf7047
            10f0004f40f4000020f07f4018bf404211f0004f41f4000121f07f4118bf
            494292ea030f3fd0a2f1010241fa03fc10eb0c00c3f1200301fa03f100f0
            004302d5494260eb4000b0f5000f13d3b0f1807f06d340084fea310102f1
            0102fe2a51d2b1f1004f40ebc25008bf20f0010040ea03007047490040eb
            000010f4000fa2f10102edd1b0fa80fcacf1080cb2eb0c0200fa0cf0aabf
            00ebc25052421843bcbfd0401843704792f0000f81f4000106bf80f40000
            0132013bb5e74fea41037fea226c18bf7fea236c21d092ea030f04d092f0
            000f08bf0846704790ea010f1cbf0020704712f07f4f04d1400028bf40f0
            0040704712f100723cbf00f50000704700f0004343f0fe4040f400007047
            7fea226216bf08467fea23630146420206bf5fea412390ea010f40f48000
            70474ff0000304e000bf10f0004348bf40425fea000c08bf704743f09643
            01464ff000001ce050ea010208bf70474ff000030ae000bf50ea010208bf
            704711f0004302d5404261eb41015fea010c02bf84460146002043f0b643
            08bfa3f18053a3f50003bcfa8cf2083aa3ebc25310db01fa02fc634400fa
            02fcc2f12002bcf1004f20fa02f243eb020008bf20f00100704702f12002
            01fa02fcc2f1200250ea4c0021fa02f243eb020008bf20eadc7070474ff0
            ff3c06e000bf4ff0010c02e000bf4ff0010c4df804cd4fea40024fea4103
            7fea226c18bf7fea236c11d001b052ea530c18bf90ea010f58bfb2eb0300
            88bfc81738bf6feae17018bf40f0010070477fea226c02d15fea402c05d1
            7fea236ce4d15fea412ce1d05df8040b704700bf844608466146ffe70fb5
            fff7c9ff002848bf10f1000f0fbd4df808edfff7f4ff0cbf012000205df8
            08fb00bf4df808edfff7eaff34bf012000205df808fb00bf4df808edfff7
            e0ff94bf012000205df808fb00bf4df808edfff7d2ff94bf012000205df8
            08fb00bf4df808edfff7c8ff34bf012000205df808fb00bf4fea4002b2f1
            fe4f0fd34ff09e03b3eb12620dd94fea002343f0004310f0004f23fa02f0
            18bf404270474ff00000704712f1610f01d1420205d110f0004008bf6ff0
            004070474ff00000704770b50f4e0f4d761bb61018bf002405d0013455f8
            043b9847a642f9d10a4e0b4d00f0e4f8761bb61018bf002406d0013455f8
            043b9847a642f9d170bd70bd00bfdc420000dc420000e4420000dc420000
            024b13b1024800f005b870470000000049410000014600200246034600f0
            16b838b5084b084ded1aac1018bfed1805d0013c55f8043d9847002cf9d1
            bde8384000f0b2b8e4420000e84200002de9f047254c064625688846d5f8
            484192469946c4b360681f2817dc411c76b104eb8003c3f888a0d4f88851
            012282401543022ec4f88851c3f808911ed0831c6160002044f82380bde8
            f087144b03b34ff4c870aff300800446d0b1d5f84831002784e888003846
            c5f848410121c4f88871c4f88c71002ee1d0d1e7d4f88c311a43c4f88c21
            dae705f5a674c5f84841c1e74ff0ff30bde8f08700bfc042000000000000
            00000000140000001c000000240000002c000000340000003c0000004400
            00004c000000540000005c000000640000006c000000740000007c000000
            840000008c00000000010204081020408001020408102040800000000000
            000010000000180000002000000028000000300000003800000040000000
            480000005000000058000000600000006800000070000000780000008000
            00008800000000010001020203034300000028000020f8b500bff8bc08bc
            9e467047f8b500bff8bc08bc9e46704729410000e5040000c10400000000
            00000000000000000000003b5808c00e1602801d2c04003b5808003b5808
            003b5808003b5808020000004b00000000000000140300207c030020e403
            002000000000000000000000000000000000000000000000000000000000
            0000000000000000bc420000000000000000000000000000000000000000
            000000000000000000000000000000000000000000000000000000000000
            000000000000000000000000000000000000000000000000000000000000
            000000000000000000000000000000000000000000000000000000000000
            0000000001000000000000000e33cdab34126de6ecde05000b0000000000
            000000000000000000000000000000000000000000000000000000000000
            000000000000000000000000000000000000000000000000000000000000
            000000000000000000000000000000000000000000000000000000000000
            000000000000000000000000000000000000000000000000000000000000
            000000000000000000000000000000000000000000000000000000000000
            000000000000000000000000000000000000000000000000000000000000
            000000000000000000000000000000000000000000000000000000000000
            000000000000000000000000000000000000000000000000000000000000
            000000000000000000000000000000000000000000000000000000000000
            000000000000000000000000000000000000000000000000000000000000
            000000000000000000000000000000000000000000000000000000000000
            000000000000000000000000000000000000000000000000000000000000
            000000000000000000000000000000000000000000000000000000000000
            000000000000000000000000000000000000000000000000000000000000
            000000000000000000000000000000000000000000000000000000000000
            000000000000000000000000000000000000000000000000000000000000
            000000000000000000000000000000000000000000000000000000000000
            000000000000000000000000000000000000000000000000000000000000
            000000000000000000000000000000000000000000000000000000000000
            000000000000000000000000000000000000000000000000000000000000
            000000000000000000000000000000000000000000000000000000000000
            000000000000000000000000000000000000000000000000000000000000
            000000000000000000000000000000000000000000000000000000000000
            000000000000000000000000000000000000000000000000000000000000
            000000000000000000000000000000000000000000000000000000000000
            000000000000000000000000000000000000000000000000000000000000
            000000000000000000000000000000000000000000000000000000000000
            000000000000000000000000000000000000000000000000000000000000
            000000000000000000000000000000000000000000000000000000000000
            <crc>
                cb54
            </crc>
        </region>
    </nvm>
</Actel_Data_File>
